# dimensionless [l(l+1)/2pi] C_l's for scalar mode
# for l=2 to 5500, i.e. number of multipoles equal to 5499
#
# -> if you prefer output in CAMB/HealPix/LensPix units/order, set 'format' to 'camb' in input file
# -> if you don't want to see such a header, set 'headers' to 'no' in input file
# -> for CMB lensing (phi), these are C_l^phi-phi for the lensing potential.
#    Remember the conversion factors:
#    C_l^dd (deflection) = l(l+1) C_l^phi-phi
#    C_l^gg (shear/convergence) = 1/4 (l(l+1))^2 C_l^phi-phi
#
# 1:l     2:TT                     3:EE                     4:TE                     5:BB                     6:phiphi                 7:TPhi                   8:Ephi               
    2       1.428290050290e-10       5.075004552505e-15       3.939744043370e-13       0.000000000000e+00       8.434882158386e-09       4.650105824938e-10      -2.059106950204e-12 
    3       1.347930232980e-10       7.210401588033e-15       4.607466470955e-13       0.000000000000e+00       5.183156251339e-09       3.304253281633e-10      -1.650908326660e-12 
    4       1.271223691160e-10       7.019946510835e-15       4.474737714220e-13       0.000000000000e+00       3.609231429266e-09       2.505692458922e-10      -1.174319654656e-12 
    5       1.212568025133e-10       5.351648437404e-15       3.953425330451e-13       0.000000000000e+00       2.696722216251e-09       1.980982868961e-10      -7.483515752344e-13 
    6       1.171128876830e-10       3.394213205253e-15       3.295462702148e-13       0.000000000000e+00       2.107869990902e-09       1.612770129194e-10      -4.084515715554e-13 
    7       1.143298348363e-10       1.916882759883e-15       2.657354416786e-13       0.000000000000e+00       1.701189418059e-09       1.342367504270e-10      -1.633765743722e-13 
    8       1.125912937172e-10       1.099805236250e-15       2.119244884779e-13       0.000000000000e+00       1.405999001610e-09       1.136940308320e-10      -7.083189775023e-15 
    9       1.116432619985e-10       7.601694555529e-16       1.714191170305e-13       0.000000000000e+00       1.183641487973e-09       9.767470060732e-11       7.491109839980e-14 
   10       1.112719778477e-10       6.387591822257e-16       1.445650452680e-13       0.000000000000e+00       1.011460765983e-09       8.493099706460e-11       1.012922729309e-13 
   11       1.113720494457e-10       5.676711024489e-16       1.298226797621e-13       0.000000000000e+00       8.496417488886e-10       7.493754316790e-11       9.150644847468e-14 
   12       1.118313040234e-10       4.952234297043e-16       1.246230980906e-13       0.000000000000e+00       7.423859219867e-10       6.628182330477e-11       6.295213917689e-14 
   13       1.125634291025e-10       4.336120085015e-16       1.261234535164e-13       0.000000000000e+00       6.543436843941e-10       5.921811789687e-11       2.934730603439e-14 
   14       1.134867020535e-10       4.027763831010e-16       1.317702329085e-13       0.000000000000e+00       5.810933372633e-10       5.306329385585e-11      -7.091645916225e-16 
   15       1.146104853918e-10       4.059041872147e-16       1.395651531501e-13       0.000000000000e+00       5.194379195141e-10       4.789985373061e-11      -2.197705615375e-14 
   16       1.158957470947e-10       4.333496584612e-16       1.480532758766e-13       0.000000000000e+00       4.670177827718e-10       4.349103262079e-11      -3.322893561791e-14 
   17       1.172910913670e-10       4.756104963214e-16       1.564225962943e-13       0.000000000000e+00       4.220511662349e-10       3.966366679104e-11      -3.568944701735e-14 
   18       1.187801445683e-10       5.303380782243e-16       1.645205059768e-13       0.000000000000e+00       3.830221440484e-10       3.627072820436e-11      -3.210467397453e-14 
   19       1.203734755545e-10       6.014262694834e-16       1.724146877708e-13       0.000000000000e+00       3.493144223104e-10       3.328748206821e-11      -2.504758126919e-14 
   20       1.220324484150e-10       6.940177954752e-16       1.802252321945e-13       0.000000000000e+00       3.196258696883e-10       3.065793648133e-11      -1.747581651510e-14 
   21       1.237674051339e-10       8.101975395942e-16       1.881882158554e-13       0.000000000000e+00       2.934903036815e-10       2.833871886270e-11      -1.100177312083e-14 
   22       1.255713527035e-10       9.503088946889e-16       1.965471737743e-13       0.000000000000e+00       2.702835495412e-10       2.625254089739e-11      -6.759000240782e-15 
   23       1.274364363370e-10       1.113303095616e-15       2.052645904471e-13       0.000000000000e+00       2.496866432156e-10       2.437096692680e-11      -4.946835428095e-15 
   24       1.293366427954e-10       1.297386308090e-15       2.141570994110e-13       0.000000000000e+00       2.312232266197e-10       2.266234913329e-11      -5.268758401385e-15 
   25       1.312888742666e-10       1.502551487886e-15       2.229882238405e-13       0.000000000000e+00       2.146762809606e-10       2.112986000560e-11      -7.039053340747e-15 
   26       1.333040643079e-10       1.729187615038e-15       2.314557557335e-13       0.000000000000e+00       1.997465626960e-10       1.976822023420e-11      -9.326006760490e-15 
   27       1.353648974545e-10       1.977631700742e-15       2.392528255965e-13       0.000000000000e+00       1.862550087700e-10       1.854413236645e-11      -1.144258283203e-14 
   28       1.374380958230e-10       2.248245148966e-15       2.460752987427e-13       0.000000000000e+00       1.739689890548e-10       1.740945390971e-11      -1.279765563630e-14 
   29       1.395335231186e-10       2.542092979072e-15       2.518131555957e-13       0.000000000000e+00       1.628257986658e-10       1.636140248630e-11      -1.330729965252e-14 
   30       1.416647656318e-10       2.860515197662e-15       2.564247170724e-13       0.000000000000e+00       1.527058325064e-10       1.540364728231e-11      -1.308148981928e-14 
   31       1.438348882792e-10       3.204908486039e-15       2.598834186082e-13       0.000000000000e+00       1.434027132685e-10       1.453129057646e-11      -1.229218017080e-14 
   32       1.460460408349e-10       3.576576289203e-15       2.621727246966e-13       0.000000000000e+00       1.348684402942e-10       1.373624396766e-11      -1.116017546314e-14 
   33       1.482907083790e-10       3.976828362076e-15       2.632915323572e-13       0.000000000000e+00       1.270426998976e-10       1.300207576688e-11      -9.973037513739e-15 
   34       1.505550563778e-10       4.406944186440e-15       2.632509392021e-13       0.000000000000e+00       1.198160162368e-10       1.230874749063e-11      -9.023312634747e-15 
   35       1.528445584065e-10       4.867903329023e-15       2.620540187797e-13       0.000000000000e+00       1.131514344589e-10       1.165742393592e-11      -8.362751837856e-15 
   36       1.551656680326e-10       5.360554983416e-15       2.597103719819e-13       0.000000000000e+00       1.069955192756e-10       1.105353609310e-11      -7.962636831175e-15 
   37       1.575197379611e-10       5.885687705160e-15       2.562211697926e-13       0.000000000000e+00       1.012681869102e-10       1.049957766512e-11      -7.778949783413e-15 
   38       1.599080298480e-10       6.444043213809e-15       2.515072128672e-13       0.000000000000e+00       9.595466312676e-11       9.993817584786e-12      -7.758850076798e-15 
   39       1.623271587610e-10       7.036298582173e-15       2.454562845707e-13       0.000000000000e+00       9.103810940042e-11       9.530628819081e-12      -7.834078769508e-15 
   40       1.647669030329e-10       7.663056243014e-15       2.379410042446e-13       0.000000000000e+00       8.647164985001e-11       9.100417486025e-12      -7.917595670947e-15 
   41       1.672152554553e-10       8.324871282161e-15       2.288424669647e-13       0.000000000000e+00       8.219470805602e-11       8.692540131557e-12      -7.924657334587e-15 
   42       1.696771484210e-10       9.022355843095e-15       2.181330433352e-13       0.000000000000e+00       7.819471267617e-11       8.305977591508e-12      -7.847347619432e-15 
   43       1.721607084230e-10       9.756100419908e-15       2.058186957557e-13       0.000000000000e+00       7.446106870046e-11       7.941589790724e-12      -7.702177880814e-15 
   44       1.746718026270e-10       1.052664191173e-14       1.919171701610e-13       0.000000000000e+00       7.096664097997e-11       7.599074243925e-12      -7.510101546810e-15 
   45       1.772139782279e-10       1.133446597638e-14       1.764488588404e-13       0.000000000000e+00       6.767745152678e-11       7.277341469057e-12      -7.294932688978e-15 
   46       1.797888970334e-10       1.218002133445e-14       1.594046940144e-13       0.000000000000e+00       6.458833173832e-11       6.976014233571e-12      -7.077395045256e-15 
   47       1.823955701678e-10       1.306370511883e-14       1.407696933033e-13       0.000000000000e+00       6.169568875682e-11       6.694203879809e-12      -6.879757966167e-15 
   48       1.850299072178e-10       1.398585581209e-14       1.205319209522e-13       0.000000000000e+00       5.898675182185e-11       6.430000224375e-12      -6.727697931150e-15 
   49       1.876844575391e-10       1.494675082096e-14       9.868253646223e-14       0.000000000000e+00       5.643888972958e-11       6.180397530502e-12      -6.650464579970e-15 
   50       1.903515179338e-10       1.594660846464e-14       7.521034031964e-14       0.000000000000e+00       5.402642812367e-11       5.942172434222e-12      -6.672649113665e-15 
   51       1.930340503104e-10       1.698560020323e-14       5.008355299077e-14       0.000000000000e+00       5.174486639504e-11       5.714970403351e-12      -6.786470192841e-15 
   52       1.957372803309e-10       1.806383753585e-14       2.326317410349e-14       0.000000000000e+00       4.959205437237e-11       5.498929101606e-12      -6.972252355215e-15 
   53       1.984654921514e-10       1.918136571171e-14      -5.292152263391e-15       0.000000000000e+00       4.756094522315e-11       5.293771121401e-12      -7.205942443563e-15 
   54       2.012219281457e-10       2.033816151221e-14      -3.562634790886e-14       0.000000000000e+00       4.563926584625e-11       5.098774754038e-12      -7.458880454519e-15 
   55       2.040088406777e-10       2.153414134280e-14      -6.777821711106e-14       0.000000000000e+00       4.381326232490e-11       4.913053789845e-12      -7.703847321788e-15 
   56       2.068278922030e-10       2.276919294322e-14      -1.017556794165e-13       0.000000000000e+00       4.208078097257e-11       4.736545277809e-12      -7.935492585510e-15 
   57       2.096796789190e-10       2.404314767007e-14      -1.375555041298e-13       0.000000000000e+00       4.044085956647e-11       4.569215948337e-12      -8.154580018179e-15 
   58       2.125634951253e-10       2.535576910067e-14      -1.751705481105e-13       0.000000000000e+00       3.888976987794e-11       4.410757866525e-12      -8.362170371435e-15 
   59       2.154772388717e-10       2.670675121689e-14      -2.145896585535e-13       0.000000000000e+00       3.742084683360e-11       4.260571242487e-12      -8.559636780746e-15 
   60       2.184173176051e-10       2.809571658902e-14      -2.557975757705e-13       0.000000000000e+00       3.602431767654e-11       4.117747241666e-12      -8.748680170091e-15 
   61       2.213801212666e-10       2.952223868265e-14      -2.987783042962e-13       0.000000000000e+00       3.469001619909e-11       3.981324659013e-12      -8.930646081030e-15 
   62       2.243670414191e-10       3.098591873897e-14      -3.435263303710e-13       0.000000000000e+00       3.341662385886e-11       3.851166154016e-12      -9.104261117586e-15 
   63       2.273804164139e-10       3.248632300677e-14      -3.900377612844e-13       0.000000000000e+00       3.220420921378e-11       3.727249087727e-12      -9.267413445747e-15 
   64       2.304220196192e-10       3.402295911228e-14      -4.383070918069e-13       0.000000000000e+00       3.105144816085e-11       3.609400682522e-12      -9.417799908513e-15 
   65       2.334930148026e-10       3.559527500834e-14      -4.883272170182e-13       0.000000000000e+00       2.995554463845e-11       3.497289521917e-12      -9.552919265306e-15 
   66       2.365939115117e-10       3.720265792366e-14      -5.400894451355e-13       0.000000000000e+00       2.891215132864e-11       3.390417050379e-12      -9.670065431377e-15 
   67       2.397245204558e-10       3.884443331209e-14      -5.935835103417e-13       0.000000000000e+00       2.791529035948e-11       3.288109073141e-12      -9.766320717214e-15 
   68       2.428844607754e-10       4.051983758765e-14      -6.487959663299e-13       0.000000000000e+00       2.695895006161e-11       3.189695849135e-12      -9.839093973922e-15 
   69       2.460749009422e-10       4.222793226303e-14      -7.057049602711e-13       0.000000000000e+00       2.604242819888e-11       3.095113745028e-12      -9.887876763731e-15 
   70       2.492970920770e-10       4.396767044576e-14      -7.642844180945e-13       0.000000000000e+00       2.516593393765e-11       3.004410782168e-12      -9.912832525818e-15 
   71       2.525518173171e-10       4.573791982269e-14      -8.245055420050e-13       0.000000000000e+00       2.432897180885e-11       2.917565219166e-12      -9.914290202441e-15 
   72       2.558393613118e-10       4.753746093880e-14      -8.863367818971e-13       0.000000000000e+00       2.353030527611e-11       2.834481875068e-12      -9.892751414555e-15 
   73       2.591594797192e-10       4.936498547604e-14      -9.497438067696e-13       0.000000000000e+00       2.276792030392e-11       2.754988452515e-12      -9.848897637439e-15 
   74       2.625113687021e-10       5.121909453206e-14      -1.014689476140e-12       0.000000000000e+00       2.203898892582e-11       2.678831860913e-12      -9.783597376311e-15 
   75       2.658936344244e-10       5.309829689910e-14      -1.081133811458e-12       0.000000000000e+00       2.133983281252e-11       2.605674539598e-12      -9.697913341959e-15 
   76       2.693049111864e-10       5.500108386263e-14      -1.149036081291e-12       0.000000000000e+00       2.066683649097e-11       2.535181028592e-12      -9.593375836266e-15 
   77       2.727459133932e-10       5.692617314946e-14      -1.218361559041e-12       0.000000000000e+00       2.001945979173e-11       2.467304034037e-12      -9.472844601776e-15 
   78       2.762177040918e-10       5.887230654436e-14      -1.289075951324e-12       0.000000000000e+00       1.939771109879e-11       2.402044090470e-12      -9.339817901387e-15 
   79       2.797210626033e-10       6.083817716697e-14      -1.361143408038e-12       0.000000000000e+00       1.880122974819e-11       2.339362144340e-12      -9.198192681014e-15 
   80       2.832564673197e-10       6.282242931975e-14      -1.434526537124e-12       0.000000000000e+00       1.822926906949e-11       2.279177727772e-12      -9.052277204065e-15 
   81       2.868240785012e-10       6.482365833581e-14      -1.509186419327e-12       0.000000000000e+00       1.768067942735e-11       2.221367132337e-12      -8.906803685908e-15 
   82       2.904237210735e-10       6.684041042687e-14      -1.585082622952e-12       0.000000000000e+00       1.715389126299e-11       2.165761582811e-12      -8.766940928344e-15 
   83       2.940548674246e-10       6.887118253117e-14      -1.662173218623e-12       0.000000000000e+00       1.664689813571e-11       2.112145410949e-12      -8.638306954081e-15 
   84       2.977169527767e-10       7.091441749162e-14      -1.740413799784e-12       0.000000000000e+00       1.615774445330e-11       2.060308470322e-12      -8.525635980259e-15 
   85       3.014104190563e-10       7.296848900501e-14      -1.819754325294e-12       0.000000000000e+00       1.568611871115e-11       2.010217364959e-12      -8.428497753726e-15 
   86       3.051358133398e-10       7.503171388728e-14      -1.900141778024e-12       0.000000000000e+00       1.523199451396e-11       1.961869390456e-12      -8.344888437424e-15 
   87       3.088934592224e-10       7.710235629419e-14      -1.981521110661e-12       0.000000000000e+00       1.479514101923e-11       1.915239915614e-12      -8.272503341363e-15 
   88       3.126834452048e-10       7.917862749075e-14      -2.063835243749e-12       0.000000000000e+00       1.437511446095e-11       1.870281467813e-12      -8.208726940948e-15 
   89       3.165056130800e-10       8.125868562068e-14      -2.147025063747e-12       0.000000000000e+00       1.397124967330e-11       1.826922818394e-12      -8.150622895295e-15 
   90       3.203595463199e-10       8.334063547577e-14      -2.231029421068e-12       0.000000000000e+00       1.358265161430e-11       1.785068068044e-12      -8.094924065556e-15 
   91       3.242445584614e-10       8.542252826536e-14      -2.315785128134e-12       0.000000000000e+00       1.320818688955e-11       1.744595732171e-12      -8.038022533240e-15 
   92       3.281596814936e-10       8.750236138574e-14      -2.401226957424e-12       0.000000000000e+00       1.284647527585e-11       1.705357826285e-12      -7.975959618530e-15 
   93       3.321039739867e-10       8.957813031723e-14      -2.487289218564e-12       0.000000000000e+00       1.249621726946e-11       1.667216537764e-12      -7.905351167155e-15 
   94       3.360775237147e-10       9.164799374481e-14      -2.573910765167e-12       0.000000000000e+00       1.215725149413e-11       1.630162536849e-12      -7.826344280752e-15 
   95       3.400805750568e-10       9.371013296086e-14      -2.661030740922e-12       0.000000000000e+00       1.182964139542e-11       1.594212851384e-12      -7.740088893012e-15 
   96       3.441132155638e-10       9.576270242881e-14      -2.748587087100e-12       0.000000000000e+00       1.151334957446e-11       1.559374472581e-12      -7.647844942426e-15 
   97       3.481753687334e-10       9.780383026804e-14      -2.836516562284e-12       0.000000000000e+00       1.120823392417e-11       1.525643956341e-12      -7.550985228885e-15 
   98       3.522667867859e-10       9.983161873890e-14      -2.924754762092e-12       0.000000000000e+00       1.091404376551e-11       1.493007024581e-12      -7.450998270276e-15 
   99       3.563870434401e-10       1.018441447277e-13      -3.013236138897e-12       0.000000000000e+00       1.063041598368e-11       1.461438166549e-12      -7.349491159087e-15 
  100       3.605355266887e-10       1.038394602316e-13      -3.101894021555e-12       0.000000000000e+00       1.035687116442e-11       1.430900240153e-12      -7.248192418997e-15 
  101       3.647114315742e-10       1.058155928436e-13      -3.190660635126e-12       0.000000000000e+00       1.009280973018e-11       1.401344073283e-12      -7.148954861487e-15 
  102       3.689137529642e-10       1.077705462377e-13      -3.279467120603e-12       0.000000000000e+00       9.837508076388e-12       1.372708065131e-12      -7.053758442427e-15 
  103       3.731412783274e-10       1.097023006535e-13      -3.368243554627e-12       0.000000000000e+00       9.590114707704e-12       1.344917787514e-12      -6.964713118685e-15 
  104       3.773928446730e-10       1.116088580403e-13      -3.456919400531e-12       0.000000000000e+00       9.349843313913e-12       1.317903299480e-12      -6.883582247650e-15 
  105       3.816681644580e-10       1.134883833886e-13      -3.545424888344e-12       0.000000000000e+00       9.116590023698e-12       1.291654613594e-12      -6.810273309992e-15 
  106       3.859670982994e-10       1.153390834833e-13      -3.633689858838e-12       0.000000000000e+00       8.890392717874e-12       1.266173013967e-12      -6.744147681935e-15 
  107       3.902893965034e-10       1.171591649140e-13      -3.721643373041e-12       0.000000000000e+00       8.671239856504e-12       1.241453810501e-12      -6.684479502956e-15 
