# dimensionless total lensed [l(l+1)/2pi] C_l's
# for l=2 to 5000, i.e. number of multipoles equal to 4999
#
# -> if you prefer output in CAMB/HealPix/LensPix units/order, set 'format' to 'camb' in input file
# -> if you don't want to see such a header, set 'headers' to 'no' in input file
# -> for CMB lensing (phi), these are C_l^phi-phi for the lensing potential.
#    Remember the conversion factors:
#    C_l^dd (deflection) = l(l+1) C_l^phi-phi
#    C_l^gg (shear/convergence) = 1/4 (l(l+1))^2 C_l^phi-phi
#
# 1:l     2:TT                     3:EE                     4:TE                     5:BB                     6:phiphi                 7:TPhi                   8:Ephi               
    2       2.867178275745e-10       7.832747210483e-15       5.600619436862e-13       4.820779897449e-15       8.251949144857e-09       4.776378475813e-10      -2.071094443493e-12 
    3       2.452654497610e-10       1.012455998345e-14       4.541094350294e-13       4.847153520577e-15       5.132332600389e-09       3.389020025378e-10      -1.656449208463e-12 
    4       2.260309514663e-10       9.659833274413e-15       3.885002612436e-13       4.207944893360e-15       3.574811690825e-09       2.565928877349e-10      -1.174671094213e-12 
    5       2.152072499451e-10       7.427690866032e-15       3.251848518406e-13       3.290168056189e-15       2.668775491263e-09       2.026241944717e-10      -7.450917287382e-13 
    6       2.080981872174e-10       4.869965807118e-15       2.624964378408e-13       2.383400773435e-15       2.083496030097e-09       1.648188571754e-10      -4.032485113295e-13 
    7       2.034574450430e-10       2.916334090880e-15       2.059383440612e-13       1.645778315720e-15       1.679818616143e-09       1.371452080943e-10      -1.578520236382e-13 
    8       2.004314539486e-10       1.800727093523e-15       1.590932427802e-13       1.129336157231e-15       1.388247490895e-09       1.161537069261e-10      -2.421232542426e-15 
    9       1.985411497194e-10       1.324307109884e-15       1.236093408759e-13       8.210321074175e-16       1.169613034996e-09       9.974639562247e-11       7.807432230599e-14 
   10       1.974401327250e-10       1.184426426720e-15       9.945549157516e-14       6.780378112576e-16       1.000441439095e-09       8.667632639456e-11       1.028301694569e-13 
   11       1.969005599540e-10       1.169155217731e-15       8.531021877170e-14       6.519791345761e-16       8.420820030032e-10       7.641563488401e-11       9.163839348054e-14 
   12       1.968209882861e-10       1.194508461591e-15       7.896415250329e-14       7.004221761259e-16       7.357665792261e-10       6.766806874475e-11       6.222983166047e-14 
   13       1.970238553328e-10       1.251798322917e-15       7.785808215765e-14       7.929433354231e-16       6.484964665015e-10       6.040090658872e-11       2.813890541438e-14 
   14       1.974139227316e-10       1.350345042806e-15       7.973086976911e-14       9.093728464173e-16       5.758833831136e-10       5.409869147022e-11      -1.838135428796e-15 
   15       1.980020333413e-10       1.488441842153e-15       8.282642997905e-14       1.038749213403e-15       5.147648520001e-10       4.880219100002e-11      -2.274786802406e-14 
   16       1.987839002548e-10       1.655491062612e-15       8.585825704487e-14       1.175515982149e-15       4.628012249267e-10       4.432260254695e-11      -3.353136700223e-14 
   17       1.996140843929e-10       1.842602588852e-15       8.817337055247e-14       1.317282975744e-15       4.182260241839e-10       4.045988394737e-11      -3.554347966286e-14 
   18       2.005414821559e-10       2.048065965088e-15       8.963901567677e-14       1.463519496560e-15       3.795364026222e-10       3.698070839686e-11      -3.167247037251e-14 
   19       2.015965922525e-10       2.275903408015e-15       9.039302691566e-14       1.613992314727e-15       3.461202493701e-10       3.388152741231e-11      -2.449239882388e-14 
   20       2.026807823333e-10       2.531236945399e-15       9.067787812472e-14       1.768573883346e-15       3.166890849638e-10       3.116641662126e-11      -1.690521627724e-14 
   21       2.038178839485e-10       2.815656218018e-15       9.076182422056e-14       1.927151199728e-15       2.907808426688e-10       2.880152331035e-11      -1.050945458471e-14 
   22       2.050114399807e-10       3.128901794107e-15       9.089684093377e-14       2.089685565727e-15       2.677761005255e-10       2.669808763751e-11      -6.425914610233e-15 
   23       2.062555426652e-10       3.469838941076e-15       9.105959936972e-14       2.256070901098e-15       2.473584568263e-10       2.481027272143e-11      -4.802776821413e-15 
   24       2.075062475684e-10       3.836782756324e-15       9.108726333264e-14       2.426209069767e-15       2.290556908627e-10       2.308585960377e-11      -5.281808054457e-15 
   25       2.087868818763e-10       4.229646983724e-15       9.076547093800e-14       2.599917854327e-15       2.126528228223e-10       2.152069045972e-11      -7.177846696182e-15 
   26       2.101111347414e-10       4.648757425654e-15       8.981953868806e-14       2.776995890479e-15       1.978534305159e-10       2.011041300697e-11      -9.568990515465e-15 
   27       2.114740935581e-10       5.094654579903e-15       8.797621188237e-14       2.957192562989e-15       1.844800438294e-10       1.884316092970e-11      -1.171154354814e-14 
   28       2.128481628984e-10       5.567941837167e-15       8.496740837838e-14       3.140253874358e-15       1.723020281452e-10       1.769500933897e-11      -1.295373930976e-14 
   29       2.142472772897e-10       6.069439164383e-15       8.070366027109e-14       3.325963416714e-15       1.612571125594e-10       1.665375053836e-11      -1.326824280046e-14 
   30       2.156760539134e-10       6.600033910457e-15       7.515945058937e-14       3.514130186677e-15       1.512265856683e-10       1.569876964466e-11      -1.287828627017e-14 
   31       2.171194512712e-10       7.160657402394e-15       6.832775530572e-14       3.704567383220e-15       1.420057388358e-10       1.480227821845e-11      -1.206320900292e-14 
   32       2.185852490881e-10       7.752421347016e-15       6.022606366747e-14       3.897033796346e-15       1.335470070129e-10       1.396506049175e-11      -1.101099730198e-14 
   33       2.200725200524e-10       8.376537422556e-15       5.089529922509e-14       4.091270635211e-15       1.257906916957e-10       1.319269098006e-11      -9.918551107470e-15 
   34       2.215679830251e-10       9.034170358227e-15       4.038550797893e-14       4.287015767375e-15       1.186283692503e-10       1.248579431153e-11      -8.991320762187e-15 
   35       2.230806048681e-10       9.726036943376e-15       2.870591483207e-14       4.484001656548e-15       1.120233934896e-10       1.184035625871e-11      -8.296873055304e-15 
   36       2.246159552451e-10       1.045265866460e-14       1.585830917725e-14       4.681956118762e-15       1.059227504534e-10       1.124654111931e-11      -7.861027939571e-15 
   37       2.261706973165e-10       1.121449955704e-14       1.837387188663e-15       4.880611498612e-15       1.002470148778e-10       1.069186009346e-11      -7.691306305411e-15 
   38       2.277504269661e-10       1.201210291742e-14      -1.341383106138e-14       5.079735525777e-15       9.498151948201e-11       1.017428772766e-11      -7.726762762883e-15 
   39       2.293555196146e-10       1.284599068487e-14      -2.997506151860e-14       5.279110891794e-15       9.010956115925e-11       9.692871650522e-12      -7.869368052128e-15 
   40       2.309748883539e-10       1.371662151106e-14      -4.793799736689e-14       5.478527507667e-15       8.558466945179e-11       9.243907933979e-12      -7.995225257522e-15 
   41       2.325932000797e-10       1.462441436886e-14      -6.738964138373e-14       5.677767853599e-15       8.134679698796e-11       8.822339037769e-12      -7.987002383412e-15 
   42       2.342181031031e-10       1.556983863322e-14      -8.835357754172e-14       5.876556332019e-15       7.738347158480e-11       8.427082942737e-12      -7.848064290879e-15 
   43       2.358599347927e-10       1.655334631489e-14      -1.108311215722e-13       6.074594099661e-15       7.368418077989e-11       8.057027143258e-12      -7.622598425889e-15 
   44       2.375235644582e-10       1.757534460373e-14      -1.348169652990e-13       6.271572070739e-15       7.022202174663e-11       7.709406567602e-12      -7.365284183282e-15 
   45       2.392101021815e-10       1.863617023886e-14      -1.603019616560e-13       6.467181886012e-15       6.696331168560e-11       7.380818916644e-12      -7.131187338560e-15 
   46       2.409239816679e-10       1.973600883706e-14      -1.872831697089e-13       6.661154227397e-15       6.390291996769e-11       7.070942916333e-12      -6.940356508826e-15 
   47       2.426670224521e-10       2.087494758108e-14      -2.157563095022e-13       6.853230877396e-15       6.103727936357e-11       6.779707713897e-12      -6.803713753917e-15 
   48       2.444359043210e-10       2.205299295933e-14      -2.457128266232e-13       7.043154141492e-15       5.835372921391e-11       6.506178480158e-12      -6.732882314989e-15 
   49       2.462217269786e-10       2.327006714818e-14      -2.771397738128e-13       7.230666881241e-15       5.582983923013e-11       6.248490804466e-12      -6.740198159343e-15 
   50       2.480144903919e-10       2.452603075504e-14      -3.100234151234e-13       7.415515671368e-15       5.344016412549e-11       6.004437743985e-12      -6.833789895926e-15 
   51       2.498189911165e-10       2.582076671851e-14      -3.443614663854e-13       7.597461204558e-15       5.118023777251e-11       5.773571031055e-12      -7.001217310860e-15 
   52       2.516424797027e-10       2.715411292857e-14      -3.801539726352e-13       7.776270768127e-15       4.904792313650e-11       5.555556812443e-12      -7.221411653260e-15 
   53       2.534899133178e-10       2.852583553533e-14      -4.173999314033e-13       7.951715542699e-15       4.703623191423e-11       5.349538779775e-12      -7.469003806177e-15 
   54       2.553637469719e-10       2.993562657193e-14      -4.560973495047e-13       8.123570782301e-15       4.513299802082e-11       5.154103277620e-12      -7.714103754742e-15 
   55       2.572649780190e-10       3.138312576441e-14      -4.962443305218e-13       8.291626480769e-15       4.332458878785e-11       4.967706563015e-12      -7.929367086940e-15 
   56       2.591970617955e-10       3.286799775241e-14      -5.378425235114e-13       8.455722061292e-15       4.160886619065e-11       4.790160811935e-12      -8.113755423661e-15 
   57       2.611626030267e-10       3.438986988789e-14      -5.808946305028e-13       8.615720619963e-15       3.998487355477e-11       4.621456152804e-12      -8.274292310704e-15 
   58       2.631620313139e-10       3.594830832511e-14      -6.254035457035e-13       8.771499770353e-15       3.844891443114e-11       4.461314339750e-12      -8.419355335141e-15 
   59       2.651934411897e-10       3.754281658571e-14      -6.713724524461e-13       8.922952232174e-15       3.699438339635e-11       4.309171866593e-12      -8.558739503832e-15 
   60       2.672524321731e-10       3.917283412391e-14      -7.188049201357e-13       9.069986419943e-15       3.561159685298e-11       4.164163080829e-12      -8.703720621923e-15 
   61       2.693343448451e-10       4.083774867513e-14      -7.677016191575e-13       9.212517144069e-15       3.429048153121e-11       4.025377724477e-12      -8.863884340188e-15 
   62       2.714419174275e-10       4.253693978684e-14      -8.180493846169e-13       9.350433943364e-15       3.302972795413e-11       3.892739309466e-12      -9.036638190847e-15 
   63       2.735790718023e-10       4.426974255701e-14      -8.698298587011e-13       9.483626656663e-15       3.182940066851e-11       3.766294835774e-12      -9.215447168271e-15 
   64       2.757485868851e-10       4.603543373507e-14      -9.230226459478e-13       9.611994952657e-15       3.068818487316e-11       3.645949745738e-12      -9.392821859631e-15 
   65       2.779520147050e-10       4.783323072436e-14      -9.776053028826e-13       9.735448604822e-15       2.960330789188e-11       3.531459745400e-12      -9.560279200529e-15 
   66       2.801895964830e-10       4.966229058469e-14      -1.033553327656e-12       9.853907766359e-15       2.857046064652e-11       3.422422625844e-12      -9.708303230615e-15 
   67       2.824601787119e-10       5.152170903477e-14      -1.090840149682e-12       9.967303245130e-15       2.758371912996e-11       3.318270084541e-12      -9.826305849216e-15 
   68       2.847623956829e-10       5.341050632126e-14      -1.149438989016e-12       1.007557354642e-14       2.663712607511e-11       3.218421336274e-12      -9.905061289983e-15 
   69       2.870986828950e-10       5.532758373041e-14      -1.209328895155e-12       1.017865469088e-14       2.572998365011e-11       3.122798371376e-12      -9.944670085114e-15 
   70       2.894719298458e-10       5.727175643211e-14      -1.270489918864e-12       1.027648881781e-14       2.486249706070e-11       3.031400889585e-12      -9.948145724008e-15 
   71       2.918842349301e-10       5.924176452413e-14      -1.332901387484e-12       1.036902742371e-14       2.403417382308e-11       2.944149779781e-12      -9.919107305907e-15 
   72       2.943368539092e-10       6.123627169878e-14      -1.396541942393e-12       1.045623155446e-14       2.324378769722e-11       2.860883079163e-12      -9.861803561983e-15 
   73       2.968301483800e-10       6.325386390949e-14      -1.461389576457e-12       1.053807199765e-14       2.248934262007e-11       2.781351932441e-12      -9.781136877439e-15 
   74       2.993635342442e-10       6.529304803739e-14      -1.527421671492e-12       1.061452947480e-14       2.176803663885e-11       2.705216551008e-12      -9.682687313604e-15 
   75       3.019354301775e-10       6.735225055792e-14      -1.594615035718e-12       1.068559483370e-14       2.107622584431e-11       2.632042172131e-12      -9.572736630028e-15 
   76       3.045441931802e-10       6.942987824527e-14      -1.662944222175e-12       1.075126532253e-14       2.041032864107e-11       2.561406176302e-12      -9.457250832946e-15 
   77       3.071912360982e-10       7.152451601320e-14      -1.732376047158e-12       1.081153220314e-14       1.976980865772e-11       2.493250922668e-12      -9.338560518866e-15 
   78       3.098783876169e-10       7.363476289652e-14      -1.802874135600e-12       1.086639121782e-14       1.915467278594e-11       2.427588212426e-12      -9.218116006439e-15 
   79       3.126069248298e-10       7.575917315355e-14      -1.874400553606e-12       1.091584641711e-14       1.856456258645e-11       2.364392105680e-12      -9.097477729334e-15 
   80       3.153775419481e-10       7.789625620480e-14      -1.946915810660e-12       1.095991027177e-14       1.799873750460e-11       2.303597160008e-12      -8.978318902075e-15 
   81       3.181903190110e-10       8.004447657175e-14      -2.020378861832e-12       1.099860378468e-14       1.745605808602e-11       2.245096669037e-12      -8.862428185875e-15 
   82       3.210446905960e-10       8.220225381554e-14      -2.094747109983e-12       1.103195660278e-14       1.693496919225e-11       2.188740901011e-12      -8.751712354474e-15 
   83       3.239394145285e-10       8.436796247573e-14      -2.169976407973e-12       1.106000712897e-14       1.643348321642e-11       2.134335337363e-12      -8.648198959972e-15 
   84       3.268732561639e-10       8.653993372815e-14      -2.246021766845e-12       1.108279962570e-14       1.594966300257e-11       2.081689891877e-12      -8.553482130985e-15 
   85       3.298472401119e-10       8.871646080833e-14      -2.322839610441e-12       1.110037472868e-14       1.548319935431e-11       2.030779801637e-12      -8.466948565401e-15 
   86       3.328627161673e-10       9.089579437903e-14      -2.400385900336e-12       1.111277755844e-14       1.503406548632e-11       1.981608302908e-12      -8.387260965094e-15 
   87       3.359206579485e-10       9.307614085914e-14      -2.478615476961e-12       1.112006064934e-14       1.460203231012e-11       1.934157130739e-12      -8.312882160769e-15 
   88       3.390216436338e-10       9.525566239129e-14      -2.557482073668e-12       1.112228401096e-14       1.418666004812e-11       1.888385614347e-12      -8.242068418675e-15 
   89       3.421658366980e-10       9.743247680952e-14      -2.636938330805e-12       1.111951518942e-14       1.378728984763e-11       1.844229772507e-12      -8.172862747321e-15 
   90       3.453529666490e-10       9.960465760684e-14      -2.716935809790e-12       1.111182932879e-14       1.340303539485e-11       1.801601408940e-12      -8.103088204189e-15 
   91       3.485823097639e-10       1.017702339029e-13      -2.797425007179e-12       1.109930923247e-14       1.303277452893e-11       1.760387207697e-12      -8.030341202452e-15 
   92       3.518526698259e-10       1.039271904117e-13      -2.878355368740e-12       1.108204542450e-14       1.267514085599e-11       1.720447828549e-12      -7.951984817685e-15 
   93       3.551628882718e-10       1.060735126807e-13      -2.959675190094e-12       1.106013160514e-14       1.232884785440e-11       1.681652833731e-12      -7.865836785344e-15 
   94       3.585135042434e-10       1.082073306626e-13      -3.041331270984e-12       1.103365010234e-14       1.199373516560e-11       1.643993441929e-12      -7.772366396464e-15 
   95       3.619053097533e-10       1.103267967774e-13      -3.123269234785e-12       1.100268433544e-14       1.166986489290e-11       1.607485138871e-12      -7.672817177448e-15 
   96       3.653388306845e-10       1.124300431461e-13      -3.205433649645e-12       1.096732322420e-14       1.135719936073e-11       1.572132949749e-12      -7.568544444300e-15 
   97       3.688143147939e-10       1.145151821795e-13      -3.287768041001e-12       1.092766118697e-14       1.105559729272e-11       1.537931026456e-12      -7.461018145250e-15 
   98       3.723317197162e-10       1.165803071672e-13      -3.370214904096e-12       1.088379813879e-14       1.076480998980e-11       1.504862234827e-12      -7.351825703369e-15 
   99       3.758907009672e-10       1.186234928671e-13      -3.452715716488e-12       1.083583948959e-14       1.048447750825e-11       1.472897741873e-12      -7.242674859195e-15 
  100       3.794905999474e-10       1.206427960940e-13      -3.535210950571e-12       1.078389614228e-14       1.021412483778e-11       1.441996603025e-12      -7.135396513352e-15 
  101       3.831304319460e-10       1.226362563087e-13      -3.617640086086e-12       1.072808449093e-14       9.953158079611e-12       1.412105349371e-12      -7.031947569170e-15 
  102       3.868088741444e-10       1.246018962074e-13      -3.699941622639e-12       1.066852641891e-14       9.700860624533e-12       1.383157574891e-12      -6.934413775307e-15 
  103       3.905242536194e-10       1.265377223106e-13      -3.782053092209e-12       1.060534929701e-14       9.456389331000e-12       1.355073523698e-12      -6.845012568370e-15 
  104       3.942749852808e-10       1.284417694947e-13      -3.863911593991e-12       1.053868134027e-14       9.218965610291e-12       1.327778305565e-12      -6.765567212012e-15 
  105       3.980609788946e-10       1.303122401700e-13      -3.945455454212e-12       1.046863696800e-14       8.988486311582e-12       1.301260233906e-12      -6.695842189988e-15 
  106       4.018824006484e-10       1.321473850892e-13      -4.026622814905e-12       1.039532945343e-14       8.764988617545e-12       1.275519635586e-12      -6.634987201613e-15 
  107       4.057392332232e-10       1.339454621433e-13      -4.107351149646e-12       1.031887533624e-14       8.548460846497e-12       1.250550720815e-12      -6.582042853726e-15 
