# Matter power spectrum P(k) at redshift z=0
# for k=1.03892e-05 to 108.968 h/Mpc,
# number of wavenumbers equal to 813
#    1:k (h/Mpc)              2:P (Mpc/h)^3        
       1.038922642939e-05       5.116730264492e+01 
       2.321812845777e-05       1.108985088475e+02 
       3.609173375949e-05       1.695113031264e+02 
       4.904439972293e-05       2.276638463253e+02 
       6.211104703766e-05       2.857257429193e+02 
       7.532746857054e-05       3.439710471672e+02 
       8.873064803662e-05       4.026322237699e+02 
       1.023590926717e-04       4.619221091251e+02 
       1.162531841463e-04       5.220451339834e+02 
       1.304555519933e-04       5.832040424829e+02 
       1.450114738307e-04       6.456045176576e+02 
       1.599693066034e-04       7.094587348303e+02 
       1.753809529045e-04       7.749883628512e+02 
       1.913023660834e-04       8.424272771415e+02 
       2.077940972269e-04       9.120241494359e+02 
       2.249218860767e-04       9.840449765064e+02 
       2.427572963652e-04       1.058775622165e+03 
       2.613783937036e-04       1.136524360390e+03 
       2.808704607789e-04       1.217624416408e+03 
       3.013267399005e-04       1.302436481130e+03 
       3.228491865167e-04       1.391351084661e+03 
       3.455492088079e-04       1.484790760999e+03 
       3.695483574944e-04       1.583211812667e+03 
       3.949789163030e-04       1.687105466241e+03 
       4.219843271272e-04       1.796998140694e+03 
       4.507193652352e-04       1.913450503678e+03 
       4.813499601652e-04       2.037054846268e+03 
       5.140525395271e-04       2.168430375086e+03 
       5.490127596148e-04       2.308215863940e+03 
       5.864234840096e-04       2.457059228215e+03 
       6.264818862127e-04       2.615603660772e+03 
       6.693855924581e-04       2.784470121715e+03 
       7.153278526981e-04       2.964236385994e+03 
       7.644918337246e-04       3.155413225466e+03 
       8.170442631527e-04       3.358418950567e+03 
       8.731288004716e-04       3.573553917007e+03 
       9.328596440384e-04       3.800977255392e+03 
       9.963159657110e-04       4.040688238413e+03 
       1.063537764317e-03       4.292514494541e+03 
       1.134523625953e-03       4.556109038575e+03 
       1.209230678886e-03       4.830956619010e+03 
       1.287576767588e-03       5.116389500373e+03 
       1.369444598904e-03       5.411595519535e+03 
       1.454687391583e-03       5.715665458008e+03 
       1.543135431286e-03       6.027656314769e+03 
       1.634602911679e-03       6.346562769410e+03 
       1.728894515035e-03       6.671369376084e+03 
       1.825811320086e-03       7.001075072943e+03 
       1.925155782401e-03       7.334712787292e+03 
       2.026735680812e-03       7.671364336534e+03 
       2.130367041837e-03       8.010170586360e+03 
       2.235876134908e-03       8.350338269894e+03 
       2.343100676070e-03       8.691142049510e+03 
       2.451890393792e-03       9.031924771480e+03 
       2.562107106469e-03       9.372095841643e+03 
       2.673624445201e-03       9.711127568530e+03 
       2.786327333995e-03       1.004855148331e+04 
       2.900111316992e-03       1.038395331504e+04 
       3.014881801364e-03       1.071696960124e+04 
       3.130553266383e-03       1.104728160511e+04 
       3.247048474339e-03       1.137461163200e+04 
       3.364297707344e-03       1.169871692715e+04 
       3.482238045183e-03       1.201939030936e+04 
       3.600812692879e-03       1.233644983112e+04 
       3.719970362018e-03       1.264974434338e+04 
       3.839664706618e-03       1.295913979256e+04 
       3.959853812268e-03       1.326452682902e+04 
       4.080499735881e-03       1.356581418679e+04 
       4.201568092653e-03       1.386292239093e+04 
       4.323027686457e-03       1.415579226418e+04 
       4.444850179783e-03       1.444437121017e+04 
       4.567009799409e-03       1.472862531458e+04 
       4.689483074174e-03       1.500852144878e+04 
       4.812248601458e-03       1.528404264283e+04 
       4.935286839263e-03       1.555518047922e+04 
       5.058579921044e-03       1.582192405677e+04 
       5.182111490760e-03       1.608427852352e+04 
       5.305866555835e-03       1.634224788223e+04 
       5.429831356000e-03       1.659584215343e+04 
       5.553993246208e-03       1.684508082658e+04 
       5.678340591997e-03       1.708997450089e+04 
       5.802862675902e-03       1.733055148341e+04 
       5.927549613644e-03       1.756684261670e+04 
       6.052392279003e-03       1.779889504336e+04 
       6.177382236385e-03       1.802667248095e+04 
       6.302511680230e-03       1.825022320119e+04 
       6.427773380501e-03       1.846961110761e+04 
       6.553160633584e-03       1.868483724276e+04 
       6.678667218001e-03       1.889582307760e+04 
       6.804287354430e-03       1.910285223303e+04 
       6.930015669548e-03       1.930583924251e+04 
       7.055847163317e-03       1.950483037576e+04 
       7.181777179324e-03       1.969985123636e+04 
       7.307801377880e-03       1.989093960449e+04 
       7.433915711576e-03       2.007815046640e+04 
       7.560116403057e-03       2.026150656088e+04 
       7.686399924782e-03       2.044105205828e+04 
       7.812762980579e-03       2.061682664649e+04 
       7.939202488810e-03       2.078886787797e+04 
       8.065715566993e-03       2.095721169450e+04 
       8.192299517746e-03       2.112190370219e+04 
       8.318951815908e-03       2.128297611801e+04 
       8.445670096748e-03       2.144046763637e+04 
       8.572452145146e-03       2.159441821040e+04 
       8.699295885663e-03       2.174487222326e+04 
       8.826199373408e-03       2.189186539191e+04 
       8.953160785648e-03       2.203542802498e+04 
       9.080178414077e-03       2.217560177954e+04 
       9.207250657696e-03       2.231244963165e+04 
       9.334376016246e-03       2.244597450372e+04 
       9.461553084149e-03       2.257622783873e+04 
       9.588780544910e-03       2.270324545030e+04 
       9.716057165945e-03       2.282706224818e+04 
       9.843381793799e-03       2.294771351284e+04 
       9.970753349712e-03       2.306525069282e+04 
       1.009817082553e-02       2.317968653534e+04 
       1.022563327988e-02       2.329107096240e+04 
       1.035313983469e-02       2.339943289181e+04 
       1.048068967188e-02       2.350479040733e+04 
       1.060828203033e-02       2.360722712318e+04 
       1.073591620312e-02       2.370675360085e+04 
       1.086359153481e-02       2.380336132036e+04 
       1.099130741913e-02       2.389714353264e+04 
       1.111906329662e-02       2.398812301728e+04 
       1.124685865257e-02       2.407627863474e+04 
       1.137469301507e-02       2.416170331278e+04 
       1.150256595319e-02       2.424442668171e+04 
       1.163047707528e-02       2.432443613691e+04 
       1.175842602739e-02       2.440182464042e+04 
       1.188641249182e-02       2.447656129078e+04 
       1.201443618576e-02       2.454872179609e+04 
       1.214249686003e-02       2.461831605389e+04 
       1.227059429786e-02       2.468538992912e+04 
       1.239872831385e-02       2.474995861807e+04 
       1.252689875292e-02       2.481203768448e+04 
       1.265510548940e-02       2.487169504315e+04 
       1.278334842612e-02       2.492894646585e+04 
       1.291162749359e-02       2.498380080467e+04 
       1.303994264930e-02       2.503632018948e+04 
       1.316829387699e-02       2.508650798744e+04 
       1.329668118602e-02       2.513441465555e+04 
       1.342510461074e-02       2.518002560615e+04 
       1.355356421003e-02       2.522342926475e+04 
       1.368206006672e-02       2.526459548705e+04 
       1.381059228718e-02       2.530360038760e+04 
       1.393916100088e-02       2.534044267836e+04 
       1.406776636002e-02       2.537513771876e+04 
       1.419640853919e-02       2.540774643506e+04 
       1.432508773506e-02       2.543828147452e+04 
       1.445380416611e-02       2.546676227826e+04 
       1.458255807237e-02       2.549323092698e+04 
       1.471134971523e-02       2.551767669076e+04 
       1.484017937721e-02       2.554016841553e+04 
       1.496904736186e-02       2.556071005299e+04 
       1.509795399360e-02       2.557932994399e+04 
       1.522689961757e-02       2.559605550911e+04 
       1.535588459964e-02       2.561091466823e+04 
       1.548490932627e-02       2.562391481131e+04 
       1.561397420449e-02       2.563510335227e+04 
       1.574307966191e-02       2.564450068332e+04 
       1.587222614672e-02       2.565210743301e+04 
       1.600141412769e-02       2.565797485896e+04 
       1.613064409423e-02       2.566210640699e+04 
       1.625991655648e-02       2.566453710040e+04 
       1.638923204534e-02       2.566528405899e+04 
       1.651859111263e-02       2.566438517120e+04 
       1.664799433120e-02       2.566185386887e+04 
       1.677744229502e-02       2.565769741080e+04 
       1.690693561941e-02       2.565199610090e+04 
       1.703647494116e-02       2.564468058932e+04 
       1.716606091875e-02       2.563581352967e+04 
       1.729569423256e-02       2.562545175206e+04 
       1.742537558506e-02       2.561357868917e+04 
       1.755510570111e-02       2.560025280892e+04 
       1.768488532816e-02       2.558544875430e+04 
       1.781471523658e-02       2.556922669381e+04 
       1.794459621991e-02       2.555157950573e+04 
       1.807452909519e-02       2.553252361878e+04 
       1.820451470329e-02       2.551211327906e+04 
       1.833455390922e-02       2.549037309287e+04 
       1.846464760255e-02       2.546729439649e+04 
       1.859479669771e-02       2.544288769755e+04 
       1.872500213445e-02       2.541722711150e+04 
       1.885526487820e-02       2.539026754571e+04 
       1.898558592054e-02       2.536204579834e+04 
       1.911596627961e-02       2.533261958544e+04 
       1.924640700059e-02       2.530197348868e+04 
       1.937690915616e-02       2.527013973963e+04 
       1.950747384705e-02       2.523713391909e+04 
       1.963810220248e-02       2.520299125846e+04 
       1.976879538078e-02       2.516770367139e+04 
       1.989955456986e-02       2.513131565225e+04 
       2.003038098787e-02       2.509381299572e+04 
       2.016127588371e-02       2.505526600216e+04 
       2.029224053772e-02       2.501566223599e+04 
       2.042327626226e-02       2.497495097309e+04 
       2.055438440240e-02       2.493327347728e+04 
       2.068556633659e-02       2.489059212150e+04 
       2.081682347734e-02       2.484694044909e+04 
       2.094815727200e-02       2.480226424430e+04 
       2.107956920342e-02       2.475669913251e+04 
       2.121106079080e-02       2.471017180629e+04 
       2.134263359045e-02       2.466274034535e+04 
       2.147428919662e-02       2.461440620047e+04 
       2.160602924233e-02       2.456517335181e+04 
       2.173785540027e-02       2.451510222515e+04 
       2.186976938367e-02       2.446416393193e+04 
       2.200177294727e-02       2.441235713944e+04 
       2.213386788824e-02       2.435982746811e+04 
       2.226605604718e-02       2.430648079337e+04 
       2.239833930914e-02       2.425228536041e+04 
       2.253071960470e-02       2.419738306287e+04 
       2.266319891099e-02       2.414173011569e+04 
       2.279577925287e-02       2.408533087215e+04 
       2.292846270406e-02       2.402819003060e+04 
       2.306125138832e-02       2.397038650534e+04 
       2.319414748067e-02       2.391180930843e+04 
       2.332715320870e-02       2.385265059914e+04 
       2.346027085382e-02       2.379279334788e+04 
       2.359350275265e-02       2.373229458485e+04 
       2.372685129837e-02       2.367116252160e+04 
       2.386031894220e-02       2.360940793851e+04 
       2.399390819482e-02       2.354705586961e+04 
       2.412762162796e-02       2.348419462774e+04 
       2.426146187594e-02       2.342068673370e+04 
       2.439543163729e-02       2.335660840492e+04 
       2.452953367645e-02       2.329198563495e+04 
       2.466377082550e-02       2.322683875673e+04 
       2.479814598595e-02       2.316117738135e+04 
       2.493266213057e-02       2.309505281239e+04 
       2.506732230534e-02       2.302840492490e+04 
       2.520212963140e-02       2.296125773230e+04 
       2.533708730709e-02       2.289365912828e+04 
       2.547219861006e-02       2.282557527725e+04 
       2.560746689946e-02       2.275706319117e+04 
       2.574289561820e-02       2.268816260332e+04 
       2.587848829524e-02       2.261882516260e+04 
       2.601424854807e-02       2.254911023006e+04 
       2.615018008515e-02       2.247890919857e+04 
       2.628628670849e-02       2.240838880584e+04 
       2.642257231637e-02       2.233750840579e+04 
       2.655904090605e-02       2.226626449687e+04 
       2.669569657670e-02       2.219461481907e+04 
       2.683254353228e-02       2.212275320437e+04 
       2.696958608469e-02       2.205045550339e+04 
       2.710682865691e-02       2.197789079146e+04 
       2.724427578631e-02       2.190501911598e+04 
       2.738193212810e-02       2.183184704908e+04 
       2.751980245881e-02       2.175839791280e+04 
       2.765789168003e-02       2.168465294764e+04 
       2.779620482219e-02       2.161071951993e+04 
       2.793474704856e-02       2.153643843469e+04 
       2.807352365931e-02       2.146195420926e+04 
       2.821254009580e-02       2.138720329346e+04 
       2.835180194502e-02       2.131229364310e+04 
       2.849131494419e-02       2.123713130632e+04 
       2.863108498553e-02       2.116180032021e+04 
       2.877111812125e-02       2.108618477001e+04 
       2.891142056871e-02       2.101039107068e+04 
       2.905199871581e-02       2.093449630073e+04 
       2.919285912656e-02       2.085841709323e+04 
       2.933400854692e-02       2.078213829488e+04 
       2.947545391087e-02       2.070569852306e+04 
       2.961720234669e-02       2.062915527023e+04 
       2.975926118359e-02       2.055239483068e+04 
       2.990163795849e-02       2.047561752689e+04 
       3.004434042321e-02       2.039865805433e+04 
       3.018737655192e-02       2.032159453367e+04 
       3.033075454889e-02       2.024439078523e+04 
       3.047448285660e-02       2.016710773646e+04 
       3.061857016421e-02       2.008973605979e+04 
       3.076302541639e-02       2.001224063027e+04 
       3.090785782258e-02       1.993470489628e+04 
       3.105307686660e-02       1.985711198055e+04 
       3.119869231675e-02       1.977938010361e+04 
       3.134471423639e-02       1.970165888151e+04 
       3.149115299496e-02       1.962382877690e+04 
       3.163801927953e-02       1.954599269591e+04 
       3.178532410691e-02       1.946809739055e+04 
       3.193307883634e-02       1.939009730680e+04 
       3.208129518277e-02       1.931219422429e+04 
       3.222998523079e-02       1.923421691027e+04 
       3.237916144927e-02       1.915614382369e+04 
       3.252883670670e-02       1.907803837372e+04 
       3.267902428728e-02       1.899998813314e+04 
       3.282973790787e-02       1.892191248520e+04 
       3.298099173577e-02       1.884387505638e+04 
       3.313280040742e-02       1.876580862299e+04 
       3.328517904812e-02       1.868765136164e+04 
       3.343814329270e-02       1.860962728534e+04 
       3.359170930737e-02       1.853155720940e+04 
       3.374589381272e-02       1.845353144352e+04 
       3.390071410793e-02       1.837548335457e+04 
       3.405618809640e-02       1.829750633893e+04 
       3.421233431269e-02       1.821950150076e+04 
       3.436917195107e-02       1.814152660166e+04 
       3.452672089563e-02       1.806364395258e+04 
       3.468500175217e-02       1.798575324280e+04 
       3.484403588187e-02       1.790789488803e+04 
       3.500384543699e-02       1.783009732122e+04 
       3.516445339873e-02       1.775229767188e+04 
       3.532588361722e-02       1.767458730806e+04 
       3.548816085414e-02       1.759687014855e+04 
       3.565131082779e-02       1.751922824812e+04 
       3.581536026107e-02       1.744166205557e+04 
       3.598033693244e-02       1.736404542942e+04 
       3.614626973017e-02       1.728658976918e+04 
       3.631318871005e-02       1.720913144602e+04 
       3.648112515693e-02       1.713165515656e+04 
       3.665011165028e-02       1.705430928837e+04 
       3.682018213423e-02       1.697695748574e+04 
       3.699137199229e-02       1.689966497596e+04 
       3.716371812730e-02       1.682247995647e+04 
       3.733725904692e-02       1.674530876024e+04 
       3.751203495518e-02       1.666820829786e+04 
       3.768808785064e-02       1.659104255912e+04 
       3.786546163166e-02       1.651401278778e+04 
       3.804420220943e-02       1.643700918417e+04 
       3.822435762953e-02       1.636006105008e+04 
       3.840597820268e-02       1.628313623286e+04 
       3.858911664557e-02       1.620630573111e+04 
       3.877382823277e-02       1.612939440621e+04 
       3.896017096062e-02       1.605259708496e+04 
       3.914820572440e-02       1.597576035937e+04 
       3.933799651004e-02       1.589900664057e+04 
       3.952961060172e-02       1.582223693740e+04 
       3.972311880705e-02       1.574553160321e+04 
       3.991859570163e-02       1.566876233238e+04 
       4.011611989496e-02       1.559204576329e+04 
       4.031577431990e-02       1.551530503929e+04 
       4.051764654839e-02       1.543863316949e+04 
       4.072182913609e-02       1.536182071603e+04 
       4.092841999930e-02       1.528511270849e+04 
       4.113752282770e-02       1.520833540159e+04 
       4.134924753711e-02       1.513143670994e+04 
       4.156371076694e-02       1.505459073882e+04 
       4.178103642758e-02       1.497766281408e+04 
       4.200135630395e-02       1.490070553486e+04 
       4.222481072199e-02       1.482365764300e+04 
       4.245154928613e-02       1.474652879954e+04 
       4.268173169688e-02       1.466930946261e+04 
       4.291552865902e-02       1.459199101837e+04 
       4.315312289241e-02       1.451448271141e+04 
       4.339471025972e-02       1.443688608435e+04 
       4.364050102707e-02       1.435919362494e+04 
       4.389072127675e-02       1.428128469159e+04 
       4.414561449396e-02       1.420321925540e+04 
       4.440544335371e-02       1.412491919116e+04 
       4.467049173799e-02       1.404637293084e+04 
       4.494106701937e-02       1.396761602208e+04 
       4.521750265321e-02       1.388868951716e+04 
       4.550016112887e-02       1.380932011197e+04 
       4.578943733972e-02       1.372970016502e+04 
       4.608576244376e-02       1.364971187769e+04 
       4.638960830041e-02       1.356935610889e+04 
       4.670149258728e-02       1.348854417639e+04 
       4.702198472182e-02       1.340732114543e+04 
       4.735171274002e-02       1.332561987788e+04 
       4.769137131738e-02       1.324329215348e+04 
       4.804173115941e-02       1.316043513278e+04 
       4.840365004088e-02       1.307688632327e+04 
       4.877808583913e-02       1.299264408818e+04 
       4.916611198976e-02       1.290762565946e+04 
       4.956893589854e-02       1.282171012143e+04 
       4.998792097752e-02       1.273480843006e+04 
       5.042461314402e-02       1.264685858692e+04 
       5.088077283903e-02       1.255771034251e+04 
       5.135841389881e-02       1.246727446025e+04 
       5.185985096546e-02       1.237534859641e+04 
       5.238775756514e-02       1.228171487098e+04 
       5.294523753235e-02       1.218626105996e+04 
       5.353591312362e-02       1.208849459707e+04 
       5.416403393096e-02       1.198827279663e+04 
       5.483461151318e-02       1.188513286563e+04 
       5.555358534069e-02       1.177858980844e+04 
       5.632802580607e-02       1.166795264319e+04 
       5.716637886191e-02       1.155242062398e+04 
       5.807875265916e-02       1.143086571634e+04 
       5.907723624772e-02       1.130189731122e+04 
       6.017621842365e-02       1.116359960361e+04 
       6.139263230638e-02       1.101344321133e+04 
