# dimensionless total lensed [l(l+1)/2pi] C_l's
# for l=2 to 5000, i.e. number of multipoles equal to 4999
#
# -> if you prefer output in CAMB/HealPix/LensPix units/order, set 'format' to 'camb' in input file
# -> if you don't want to see such a header, set 'headers' to 'no' in input file
# -> for CMB lensing (phi), these are C_l^phi-phi for the lensing potential.
#    Remember the conversion factors:
#    C_l^dd (deflection) = l(l+1) C_l^phi-phi
#    C_l^gg (shear/convergence) = 1/4 (l(l+1))^2 C_l^phi-phi
#
# 1:l     2:TT                     3:EE                     4:TE                     5:BB                     6:phiphi                 7:TPhi                   8:Ephi               
    2       2.865920469188e-10       7.676777184522e-15       5.585182375354e-13       4.718847208834e-15       8.384244583899e-09       4.690007916164e-10      -2.049097313638e-12 
    3       2.443823115882e-10       9.939203505655e-15       4.498644460560e-13       4.753439081159e-15       5.165759037002e-09       3.331559264516e-10      -1.642151130239e-12 
    4       2.253570680150e-10       9.510921852258e-15       3.846361265575e-13       4.135156150482e-15       3.599257940787e-09       2.524246374711e-10      -1.166784932319e-12 
    5       2.147248054285e-10       7.338253768846e-15       3.219795301250e-13       3.240832885805e-15       2.688825144741e-09       1.994800215236e-10      -7.422319167344e-13 
    6       2.077495977965e-10       4.828978889410e-15       2.600541215074e-13       2.353944301000e-15       2.101049571969e-09       1.623996614435e-10      -4.038014858373e-13 
    7       2.031993753136e-10       2.901495126123e-15       2.042095189573e-13       1.630545060614e-15       1.694893503119e-09       1.351370840347e-10      -1.601457154183e-13 
    8       2.002208434477e-10       1.794562436032e-15       1.579944456846e-13       1.122858980021e-15       1.400013383520e-09       1.143995999923e-10      -5.113155931823e-15 
    9       1.983789530987e-10       1.319213026659e-15       1.230206033566e-13       8.191068910741e-16       1.178070611507e-09       9.826825317648e-11       7.586435402634e-14 
   10       1.973577711183e-10       1.179378267019e-15       9.914133521732e-14       6.780465457874e-16       1.006471594888e-09       8.546481779978e-11       1.015139742249e-13 
   11       1.968415688881e-10       1.165103299504e-15       8.506485433611e-14       6.523619920492e-16       8.456435791710e-10       7.532776406964e-11       9.120105064618e-14 
   12       1.967475966155e-10       1.191326974467e-15       7.871330739826e-14       7.007568867747e-16       7.388461393499e-10       6.671466593831e-11       6.265695689741e-14 
   13       1.969526585196e-10       1.249018002124e-15       7.762676485839e-14       7.928566055755e-16       6.511840540958e-10       5.942028201592e-11       2.884200299457e-14 
   14       1.973898963073e-10       1.347091705929e-15       7.953558271583e-14       9.092212677497e-16       5.782476008083e-10       5.334687839198e-11      -9.258602466743e-16 
   15       1.980002717991e-10       1.484960398236e-15       8.260555552421e-14       1.038398120401e-15       5.168634056046e-10       4.822557622524e-11      -2.188959049017e-14 
   16       1.987232475104e-10       1.651980276498e-15       8.564835014613e-14       1.175238191359e-15       4.646777628145e-10       4.377419042518e-11      -3.294463123682e-14 
   17       1.996167295758e-10       1.839421985651e-15       8.803536793317e-14       1.317041833204e-15       4.199117461313e-10       3.981487153073e-11      -3.544963452669e-14 
   18       2.005603796511e-10       2.045103303395e-15       8.955966798834e-14       1.463333800584e-15       3.810572084638e-10       3.636902547000e-11      -3.189333671195e-14 
   19       2.015798132490e-10       2.272817567135e-15       9.035634725569e-14       1.613932820760e-15       3.475011519374e-10       3.339942427902e-11      -2.481302243188e-14 
   20       2.026651517001e-10       2.527651099002e-15       9.069103747864e-14       1.768685911558e-15       3.179479566098e-10       3.075480174932e-11      -1.725298847596e-14 
   21       2.038157233011e-10       2.811338134131e-15       9.081137595568e-14       1.927439641651e-15       2.919332041678e-10       2.839936771433e-11      -1.085125561277e-14 
   22       2.049807728612e-10       3.123823625683e-15       9.094071469328e-14       2.090117500779e-15       2.688348445627e-10       2.629870305843e-11      -6.729164786350e-15 
   23       2.061897316889e-10       3.463955521704e-15       9.108410805983e-14       2.256650537121e-15       2.483349369957e-10       2.443748337542e-11      -4.991732991788e-15 
   24       2.074550814115e-10       3.829973452179e-15       9.112064074988e-14       2.426996771556e-15       2.299589548894e-10       2.277862347057e-11      -5.245788955521e-15 
   25       2.087702936381e-10       4.221841200417e-15       9.081667821420e-14       2.600956561613e-15       2.134906069384e-10       2.127890811939e-11      -6.910609502249e-15 
   26       2.100967403105e-10       4.639960408282e-15       8.986617724452e-14       2.778290041250e-15       1.986319136724e-10       1.988432548697e-11      -9.207036512538e-15 
   27       2.114408391760e-10       5.084820962902e-15       8.802526016801e-14       2.958748289841e-15       1.852051151915e-10       1.860269807326e-11      -1.140286960136e-14 
   28       2.128044962657e-10       5.556944313755e-15       8.506951118999e-14       3.142088484307e-15       1.729792438242e-10       1.744991638441e-11      -1.280541462265e-14 
   29       2.142031801704e-10       6.057163071950e-15       8.090235611020e-14       3.328082437240e-15       1.618916068538e-10       1.641816545204e-11      -1.332369492597e-14 
   30       2.156330127515e-10       6.586415416434e-15       7.547016213239e-14       3.516517046787e-15       1.518225193391e-10       1.547906207812e-11      -1.309435184259e-14 
   31       2.170708965204e-10       7.145680779588e-15       6.873685685057e-14       3.707184464068e-15       1.425659624634e-10       1.459682545995e-11      -1.231493126348e-14 
   32       2.185278487366e-10       7.736053425261e-15       6.071788868404e-14       3.899845430593e-15       1.340742451120e-10       1.377225986257e-11      -1.119640984758e-14 
   33       2.200108028714e-10       8.358700554806e-15       5.146169500446e-14       4.094252719613e-15       1.262877112401e-10       1.301383002172e-11      -1.000226783920e-14 
   34       2.215130159199e-10       9.014734385293e-15       4.102679245848e-14       4.290163913214e-15       1.190977788680e-10       1.232451491733e-11      -9.005471742907e-15 
   35       2.230372598803e-10       9.704823889798e-15       2.942632282037e-14       4.487352711945e-15       1.124676200737e-10       1.169746409646e-11      -8.278471246398e-15 
   36       2.245774252622e-10       1.042943812332e-14       1.666516717555e-14       4.685602069996e-15       1.063438608868e-10       1.111777758727e-11      -7.830849381395e-15 
   37       2.261197135583e-10       1.118900085352e-14       2.741451628939e-15       4.884690880269e-15       1.006466134430e-10       1.056847715334e-11      -7.653888096532e-15 
   38       2.276737859261e-10       1.198409813956e-14      -1.239918119121e-14       5.084357238125e-15       9.536114043686e-11       1.004927783671e-11      -7.686612699359e-15 
   39       2.292497554650e-10       1.281533132376e-14      -2.883381842393e-14       5.284322657571e-15       9.047070631386e-11       9.563446081549e-12      -7.836176561787e-15 
   40       2.308485716899e-10       1.368325770824e-14      -4.665118906514e-14       5.484301214682e-15       8.592870098267e-11       9.112549644658e-12      -7.984808162596e-15 
   41       2.324653324522e-10       1.458838262313e-14      -6.593691895201e-14       5.684008352095e-15       8.167487963322e-11       8.696324953676e-12      -8.019613990619e-15 
   42       2.341029173567e-10       1.553113959805e-14      -8.672136278010e-14       5.883192033988e-15       7.769670523029e-11       8.312650009600e-12      -7.937660645706e-15 
   43       2.357611113861e-10       1.651189878410e-14      -1.090163020295e-13       6.081610826800e-15       7.398358858995e-11       7.957266660121e-12      -7.772296279055e-15 
   44       2.374319876251e-10       1.753096816160e-14      -1.328289490799e-13       6.279025533594e-15       7.050847934950e-11       7.623566876473e-12      -7.565122392557e-15 
   45       2.391052956829e-10       1.858859766839e-14      -1.581603506012e-13       6.475191222029e-15       6.723752478339e-11       7.304559711049e-12      -7.359191437377e-15 
   46       2.407882043079e-10       1.968500082930e-14      -1.850004529036e-13       6.669830225509e-15       6.416557739646e-11       6.999880742277e-12      -7.174995488895e-15 
   47       2.424902654077e-10       2.082033398240e-14      -2.133312549848e-13       6.862651244183e-15       6.128907383485e-11       6.710584139565e-12      -7.028150209582e-15 
   48       2.442174922168e-10       2.199468661761e-14      -2.431278420989e-13       7.053356364935e-15       5.859532639210e-11       6.437136438783e-12      -6.936152062974e-15 
   49       2.459720072193e-10       2.320807850600e-14      -2.743581240898e-13       7.241640698518e-15       5.606184443468e-11       6.179366918622e-12      -6.918458069999e-15 
   50       2.477534147250e-10       2.446045442944e-14      -3.069929817596e-13       7.427208754743e-15       5.366310869092e-11       5.936651305038e-12      -6.989696229929e-15 
   51       2.495641746392e-10       2.575167334280e-14      -3.410405598812e-13       7.609829649937e-15       5.139463618300e-11       5.708636796815e-12      -7.136939083278e-15 
   52       2.514050787556e-10       2.708151130785e-14      -3.765208303286e-13       7.789296257699e-15       4.925427449112e-11       5.494628062498e-12      -7.336399178145e-15 
   53       2.532733891013e-10       2.844966072312e-14      -4.134562203176e-13       7.965410195324e-15       4.723499973140e-11       5.293333386064e-12      -7.559521515375e-15 
   54       2.551625670203e-10       2.985572734037e-14      -4.518718405285e-13       8.137982248621e-15       4.532458870440e-11       5.102826023430e-12      -7.772740042031e-15 
   55       2.570655027226e-10       3.129927252910e-14      -4.917893513263e-13       8.306834091613e-15       4.350934666392e-11       4.921074464533e-12      -7.945754378198e-15 
   56       2.589857640840e-10       3.277995920034e-14      -5.332062544388e-13       8.471802972724e-15       4.178712614339e-11       4.747776006366e-12      -8.079325623718e-15 
   57       2.609286677580e-10       3.429743690753e-14      -5.761118564624e-13       8.632738936832e-15       4.015696802776e-11       4.582910991734e-12      -8.183959105774e-15 
   58       2.628978919350e-10       3.585129858039e-14      -6.204931607299e-13       8.789504097300e-15       3.861516314643e-11       4.426197692039e-12      -8.272075651672e-15 
   59       2.648953418077e-10       3.744107930423e-14      -6.663348475680e-13       8.941973111229e-15       3.715508243295e-11       4.277075828938e-12      -8.358100039468e-15 
   60       2.669210150360e-10       3.906625509936e-14      -7.136192545530e-13       9.090033654729e-15       3.576700708465e-11       4.134690096006e-12      -8.458549448584e-15 
   61       2.689742657715e-10       4.072625037639e-14      -7.623282243323e-13       9.233581921635e-15       3.444082714464e-11       3.998145786023e-12      -8.587686964131e-15 
   62       2.710582326357e-10       4.242046501930e-14      -8.124491774269e-13       9.372506863822e-15       3.317522930152e-11       3.867380001492e-12      -8.743141924014e-15 
   63       2.731761704379e-10       4.414825124306e-14      -8.639703737030e-13       9.506703240726e-15       3.197027939072e-11       3.742457645522e-12      -8.917204172537e-15 
   64       2.753300509460e-10       4.590890452739e-14      -9.168792038204e-13       9.636076594808e-15       3.082465868734e-11       3.623308882874e-12      -9.100922959556e-15 
   65       2.775204727275e-10       4.770166267145e-14      -9.711622287458e-13       9.760543568919e-15       2.973558507862e-11       3.509721295327e-12      -9.284054673617e-15 
   66       2.797465709894e-10       4.952570484842e-14      -1.026805219266e-12       9.880032223660e-15       2.869873423653e-11       3.401332037045e-12      -9.455010575077e-15 
   67       2.820059274187e-10       5.138015066013e-14      -1.083793195499e-12       9.994482354743e-15       2.770816079030e-11       3.297619989940e-12      -9.600804529240e-15 
   68       2.842960061786e-10       5.326404024395e-14      -1.142109462442e-12       1.010384029091e-14       2.675788577987e-11       3.198052259671e-12      -9.709941273761e-15 
   69       2.866190013112e-10       5.517627202560e-14      -1.201732401344e-12       1.020804135425e-14       2.584720873755e-11       3.102575668341e-12      -9.781877645036e-15 
   70       2.889778140926e-10       5.711565059718e-14      -1.262638096173e-12       1.030702439968e-14       2.497633531044e-11       3.011211216293e-12      -9.819393359187e-15 
   71       2.913745635715e-10       5.908090314461e-14      -1.324801293654e-12       1.040073719297e-14       2.414477065353e-11       2.923904725677e-12      -9.825842628730e-15 
   72       2.938105354421e-10       6.107067801766e-14      -1.388195417096e-12       1.048913658693e-14       2.335128321820e-11       2.840522943145e-12      -9.805177101183e-15 
   73       2.962861309167e-10       6.308354330002e-14      -1.452792580235e-12       1.057218869763e-14       2.259386854055e-11       2.760849642548e-12      -9.761968797672e-15 
   74       2.988008155977e-10       6.511798537929e-14      -1.518563601067e-12       1.064986908056e-14       2.186971302986e-11       2.684581727633e-12      -9.701433051549e-15 
   75       3.013530683505e-10       6.717240751704e-14      -1.585478015683e-12       1.072216290689e-14       2.117515775698e-11       2.611325334739e-12      -9.629451446994e-15 
   76       3.039413149688e-10       6.924520016051e-14      -1.653504396831e-12       1.078906221293e-14       2.050660654667e-11       2.540694468888e-12      -9.551421578211e-15 
   77       3.065670387497e-10       7.133496984126e-14      -1.722611346073e-12       1.085055668030e-14       1.986352147850e-11       2.472636292625e-12      -9.468513464643e-15 
   78       3.092321468943e-10       7.344034961326e-14      -1.792766708528e-12       1.090664148680e-14       1.924591037868e-11       2.407158350149e-12      -9.380768978195e-15 
   79       3.119380056022e-10       7.555993105468e-14      -1.863937303963e-12       1.095732019823e-14       1.865341440032e-11       2.344229530509e-12      -9.288213360825e-15 
   80       3.146854091385e-10       7.769226430906e-14      -1.936088946872e-12       1.100260488458e-14       1.808529117555e-11       2.283778272840e-12      -9.190854106168e-15 
   81       3.174745488998e-10       7.983585812643e-14      -2.009186466564e-12       1.104251623623e-14       1.754039796764e-11       2.225690771581e-12      -9.088679841146e-15 
   82       3.203049824814e-10       8.198917990449e-14      -2.083193727247e-12       1.107708368010e-14       1.701717482312e-11       2.169809181711e-12      -8.981659207587e-15 
   83       3.231756027427e-10       8.415065572974e-14      -2.158073648112e-12       1.110634549588e-14       1.651362772395e-11       2.115929823968e-12      -8.869739743839e-15 
   84       3.260852988621e-10       8.631866093166e-14      -2.233787290648e-12       1.113034572802e-14       1.602781317619e-11       2.063853567595e-12      -8.753047933608e-15 
   85       3.290351331716e-10       8.849148985571e-14      -2.310290902745e-12       1.114912407921e-14       1.555942118372e-11       2.013550506672e-12      -8.632529906796e-15 
   86       3.320264701575e-10       9.066738113147e-14      -2.387538419110e-12       1.116272454671e-14       1.510842502845e-11       1.965019419931e-12      -8.509415396636e-15 
   87       3.350602975402e-10       9.284452659757e-14      -2.465482354815e-12       1.117119853891e-14       1.467459486992e-11       1.918237116206e-12      -8.385028245384e-15 
   88       3.381372069705e-10       9.502107118342e-14      -2.544073809699e-12       1.117460493772e-14       1.425748932491e-11       1.873157516588e-12      -8.260788666904e-15 
   89       3.412573747263e-10       9.719511279088e-14      -2.623262472782e-12       1.117301016084e-14       1.385644704709e-11       1.829710736587e-12      -8.138215509241e-15 
   90       3.444205424088e-10       9.936470217599e-14      -2.702996626666e-12       1.116648822417e-14       1.347057830667e-11       1.787802168295e-12      -8.018928517200e-15 
   91       3.476259976392e-10       1.015278428307e-13      -2.783223151951e-12       1.115512080407e-14       1.309875657000e-11       1.747311562541e-12      -7.904650594923e-15 
   92       3.508725547552e-10       1.036824908645e-13      -2.863887531635e-12       1.113899729973e-14       1.273961007921e-11       1.708092111055e-12      -7.797210068467e-15 
   93       3.541590596211e-10       1.058266083514e-13      -2.944934665540e-12       1.111821027280e-14       1.239184726212e-11       1.670005897319e-12      -7.698121770977e-15 
   94       3.574860328341e-10       1.079583328056e-13      -3.026311444113e-12       1.109284084620e-14       1.205530723580e-11       1.633038341785e-12      -7.607253312422e-15 
   95       3.608542391163e-10       1.100758330950e-13      -3.107964571678e-12       1.106297121434e-14       1.173005246552e-11       1.597199352325e-12      -7.523961466639e-15 
   96       3.642641732745e-10       1.121772588541e-13      -3.189839806226e-12       1.102868906900e-14       1.141604522581e-11       1.562488076205e-12      -7.447492003798e-15 
   97       3.677160480912e-10       1.142607411001e-13      -3.271881974947e-12       1.099008759826e-14       1.111314376243e-11       1.528892481477e-12      -7.376976171546e-15 
   98       3.712097822160e-10       1.163243928480e-13      -3.354034989754e-12       1.094726548538e-14       1.082109845454e-11       1.496388938361e-12      -7.311427176150e-15 
   99       3.747449880557e-10       1.183663097267e-13      -3.436241862808e-12       1.090032690763e-14       1.053954797668e-11       1.464941800640e-12      -7.249736663642e-15 
  100       3.783209596659e-10       1.203845705944e-13      -3.518444722050e-12       1.084938153521e-14       1.026801546090e-11       1.434502987038e-12      -7.190671200962e-15 
  101       3.819366606417e-10       1.223772381542e-13      -3.600584826723e-12       1.079454453013e-14       1.000590465878e-11       1.405011562614e-12      -7.132868757106e-15 
  102       3.855907120088e-10       1.243423595697e-13      -3.682602582899e-12       1.073593654508e-14       9.752496103516e-12       1.376393320147e-12      -7.074835184267e-15 
  103       3.892813801139e-10       1.262779670806e-13      -3.764437559009e-12       1.067368372228e-14       9.506943272007e-12       1.348560361522e-12      -7.014940698981e-15 
  104       3.930070320283e-10       1.281821181647e-13      -3.846028688315e-12       1.060791311447e-14       9.268464473863e-12       1.321431766906e-12      -6.951780777448e-15 
  105       3.967675978999e-10       1.300530208757e-13      -3.927314874042e-12       1.053873824568e-14       9.036956306260e-12       1.294999683759e-12      -6.885321942948e-15 
  106       4.005632844883e-10       1.318889266628e-13      -4.008234495318e-12       1.046627158877e-14       8.812456298685e-12       1.269271426632e-12      -6.815904917990e-15 
  107       4.043941184052e-10       1.336880933747e-13      -4.088725244896e-12       1.039062891830e-14       8.594952919286e-12       1.244249001983e-12      -6.743894511540e-15 
