# dimensionless total [l(l+1)/2pi] C_l's
# for l=2 to 5500, i.e. number of multipoles equal to 5499
#
# -> if you prefer output in CAMB/HealPix/LensPix units/order, set 'format' to 'camb' in input file
# -> if you don't want to see such a header, set 'headers' to 'no' in input file
# -> for CMB lensing (phi), these are C_l^phi-phi for the lensing potential.
#    Remember the conversion factors:
#    C_l^dd (deflection) = l(l+1) C_l^phi-phi
#    C_l^gg (shear/convergence) = 1/4 (l(l+1))^2 C_l^phi-phi
#
# 1:l     2:TT                     3:EE                     4:TE                     5:BB                     6:phiphi                 7:TPhi                   8:Ephi               
    2       2.865951153464e-10       7.887453035216e-15       5.644416360605e-13       4.851915941989e-15       8.367307449963e-09       4.722432673221e-10      -2.078006088109e-12 
    3       2.447262902363e-10       1.020490791362e-14       4.559186637247e-13       4.883175939347e-15       5.145823397469e-09       3.348625247998e-10      -1.663874981333e-12 
    4       2.256158488164e-10       9.752986082833e-15       3.898850674431e-13       4.243466377208e-15       3.575598677633e-09       2.536963712582e-10      -1.181422696326e-12 
    5       2.148553518785e-10       7.512151625212e-15       3.262436384335e-13       3.320933133932e-15       2.668406999874e-09       2.004373416835e-10      -7.507435405415e-13 
    6       2.078042102141e-10       4.932272766832e-15       2.632986443296e-13       2.406992873128e-15       2.084538572647e-09       1.630742364950e-10      -4.076622340887e-13 
    7       2.031825475699e-10       2.953844648047e-15       2.065155022367e-13       1.661552971470e-15       1.682040620856e-09       1.356917159839e-10      -1.609314551494e-13 
    8       2.002071864281e-10       1.818654779180e-15       1.594915753151e-13       1.137889233479e-15       1.390512410653e-09       1.149300641087e-10      -4.202306793375e-15 
    9       1.983300668145e-10       1.330447804797e-15       1.238985023180e-13       8.234188276249e-16       1.171178686810e-09       9.871201735197e-11       7.741535298178e-14 
   10       1.972656062593e-10       1.184581143775e-15       9.963913879066e-14       6.756761539643e-16       1.001194693039e-09       8.577189635982e-11       1.030081221778e-13 
   11       1.967641538721e-10       1.166257435243e-15       8.531156973883e-14       6.458059839995e-16       8.423800238513e-10       7.560357740323e-11       9.227574896235e-14 
   12       1.966305559821e-10       1.188794928445e-15       7.881953839751e-14       6.914595601310e-16       7.359442255380e-10       6.699105952008e-11       6.319474998841e-14 
   13       1.968579051807e-10       1.243025626690e-15       7.770380525999e-14       7.816492679649e-16       6.485725604082e-10       5.965025874068e-11       2.884596259852e-14 
   14       1.972926971641e-10       1.338441877357e-15       7.957602278540e-14       8.960087874786e-16       5.758852882571e-10       5.357392352379e-11      -1.199742207747e-15 
   15       1.978814775554e-10       1.473434649120e-15       8.265022512199e-14       1.023604628829e-15       5.147161998342e-10       4.841109238005e-11      -2.232528183067e-14 
   16       1.986412632719e-10       1.637789481026e-15       8.569955808393e-14       1.158309481266e-15       4.627119859392e-10       4.384326424675e-11      -3.356477946017e-14 
   17       1.994985199003e-10       1.821846452088e-15       8.799570297609e-14       1.298183327220e-15       4.181029743725e-10       3.992386515898e-11      -3.590639577646e-14 
   18       2.004397426505e-10       2.024030529328e-15       8.944688376552e-14       1.442345121002e-15       3.793874373432e-10       3.649716088155e-11      -3.212929145855e-14 
   19       2.014879428464e-10       2.248352159137e-15       9.019424163848e-14       1.590516042364e-15       3.459526578624e-10       3.349596015360e-11      -2.490723608214e-14 
   20       2.025698463764e-10       2.499770292245e-15       9.045488819248e-14       1.742739271753e-15       3.165078496570e-10       3.083362111136e-11      -1.729237847856e-14 
   21       2.037131383030e-10       2.779997172560e-15       9.049173007779e-14       1.898917466286e-15       2.905898877534e-10       2.847759265885e-11      -1.090188186801e-14 
   22       2.049178212040e-10       3.088975416172e-15       9.056311753889e-14       2.058974297236e-15       2.675784587280e-10       2.637395749218e-11      -6.823547903134e-15 
   23       2.061761355040e-10       3.425513993379e-15       9.067227014098e-14       2.222792399198e-15       2.471566952328e-10       2.449209446768e-11      -5.155860175187e-15 
   24       2.074421620886e-10       3.787800701210e-15       9.068603987506e-14       2.390267997058e-15       2.288518308136e-10       2.278986109139e-11      -5.489359071430e-15 
   25       2.087355756250e-10       4.175802773811e-15       9.037935274195e-14       2.561205566113e-15       2.124479790984e-10       2.127013989882e-11      -7.144519849121e-15 
   26       2.100667292700e-10       4.589919237514e-15       8.945539591037e-14       2.735394619637e-15       1.976478068611e-10       1.992726249730e-11      -9.253914095790e-15 
   27       2.114338211244e-10       5.030522754411e-15       8.764460172471e-14       2.912615954611e-15       1.842742415873e-10       1.871150441198e-11      -1.124547486612e-14 
   28       2.128141790432e-10       5.498003695898e-15       8.468850697057e-14       3.092655644369e-15       1.720973666585e-10       1.755647523026e-11      -1.264117645129e-14 
   29       2.142220948481e-10       5.993256346343e-15       8.049177339278e-14       3.275291675528e-15       1.610547022486e-10       1.646862514401e-11      -1.330687437155e-14 
   30       2.156609297448e-10       6.517367054090e-15       7.501592550746e-14       3.460308553554e-15       1.510269471788e-10       1.547326650824e-11      -1.322922096460e-14 
   31       2.171142123099e-10       7.071450583306e-15       6.824172204094e-14       3.647496247350e-15       1.418088132543e-10       1.458668600784e-11      -1.245806331968e-14 
   32       2.185889027993e-10       7.656525715297e-15       6.019076192123e-14       3.836624012416e-15       1.333527564937e-10       1.379771255702e-11      -1.122618351060e-14 
   33       2.200833551311e-10       8.273594185290e-15       5.091486328932e-14       4.027457293607e-15       1.255993378062e-10       1.307724475053e-11      -9.885061896929e-15 
   34       2.215835462441e-10       8.923629084339e-15       4.047487554583e-14       4.219756204867e-15       1.184403851826e-10       1.239219724375e-11      -8.796567074150e-15 
   35       2.230979717795e-10       9.607423755700e-15       2.888004471151e-14       4.413246325673e-15       1.118391427338e-10       1.174193809117e-11      -8.039603129156e-15 
   36       2.246318106290e-10       1.032568425691e-14       1.612834706962e-14       4.607636853705e-15       1.057423562748e-10       1.113372896102e-11      -7.602129240374e-15 
   37       2.261818026900e-10       1.107904486643e-14       2.210222158091e-15       4.802643209526e-15       1.000703752509e-10       1.057217843526e-11      -7.452206635202e-15 
   38       2.277556734769e-10       1.186800002060e-14      -1.293376828212e-14       4.998040617070e-15       9.480850847481e-11       1.005683141030e-11      -7.521277941476e-15 
   39       2.293569668830e-10       1.269294050536e-14      -2.938557179852e-14       5.193628510181e-15       8.994010723021e-11       9.583296946675e-12      -7.712654318685e-15 
   40       2.309784320721e-10       1.355416386699e-14      -4.723951501507e-14       5.389216990748e-15       8.541878720551e-11       9.143501104744e-12      -7.903769022665e-15 
   41       2.326078997736e-10       1.445194702958e-14      -6.658455703741e-14       5.584607199238e-15       8.118458565506e-11       8.728212259096e-12      -7.976855680096e-15 
   42       2.342508671522e-10       1.538680721615e-14      -8.744184973151e-14       5.779523250209e-15       7.722499431935e-11       8.336342724584e-12      -7.927146959426e-15 
   43       2.359134059033e-10       1.635931571722e-14      -1.098084278903e-13       5.973659183333e-15       7.352942877201e-11       7.968159111699e-12      -7.786990551170e-15 
   44       2.375952026609e-10       1.737002584939e-14      -1.336737968629e-13       6.166696542756e-15       7.007091105504e-11       7.622601932161e-12      -7.596974601430e-15 
   45       2.392926447193e-10       1.841941678408e-14      -1.590238557972e-13       6.358317859143e-15       6.681569388962e-11       7.297847268725e-12      -7.399373355050e-15 
   46       2.410106510318e-10       1.950770664638e-14      -1.858548901737e-13       6.548253721927e-15       6.375863881311e-11       6.993455577884e-12      -7.214960930849e-15 
   47       2.427533143861e-10       2.063498235773e-14      -2.141631675782e-13       6.736248466280e-15       6.089619544742e-11       6.708675047930e-12      -7.060122243596e-15 
   48       2.445200963638e-10       2.180124647211e-14      -2.439409269375e-13       6.922047188074e-15       5.821573313714e-11       6.441752701780e-12      -6.953403576700e-15 
   49       2.463054156692e-10       2.300641328597e-14      -2.751762748712e-13       7.105395792604e-15       5.569486570266e-11       6.189861343816e-12      -6.915609608137e-15 
   50       2.481022258878e-10       2.425032791016e-14      -3.078572221018e-13       7.286043770611e-15       5.330819231212e-11       5.949939573619e-12      -6.963214645636e-15 
   51       2.499148487226e-10       2.553283861342e-14      -3.419853247988e-13       7.463753301616e-15       5.105124374899e-11       5.721650114856e-12      -7.086262827348e-15 
   52       2.517489125952e-10       2.685373739153e-14      -3.775655668609e-13       7.638292705807e-15       4.892186888248e-11       5.505098214475e-12      -7.264636895724e-15 
   53       2.536074490485e-10       2.821273597888e-14      -4.146026325006e-13       7.809434105585e-15       4.691306813537e-11       5.299959387466e-12      -7.474007256735e-15 
   54       2.554906688134e-10       2.960946303902e-14      -4.531009974217e-13       7.976953602628e-15       4.501266723098e-11       5.105449331567e-12      -7.685614380355e-15 
   55       2.573975979404e-10       3.104350312975e-14      -4.930639943770e-13       8.140641449981e-15       4.320702751185e-11       4.920602488682e-12      -7.872885385624e-15 
   56       2.593319751723e-10       3.251453137015e-14      -5.344905291209e-13       8.300335121818e-15       4.149400367743e-11       4.745257687895e-12      -8.033707121346e-15 
   57       2.612974273676e-10       3.402220730671e-14      -5.773777083347e-13       8.455894769071e-15       3.987263356875e-11       4.579264660572e-12      -8.173305054140e-15 
   58       2.632955896255e-10       3.556613491369e-14      -6.217218438740e-13       8.607194498335e-15       3.833921831794e-11       4.422179179305e-12      -8.297941469519e-15 
   59       2.653259538217e-10       3.714586141115e-14      -6.675185039878e-13       8.754122938351e-15       3.688715336420e-11       4.273244997805e-12      -8.414964139295e-15 
   60       2.673857171451e-10       3.876087608313e-14      -7.147625645376e-13       8.896583806497e-15       3.550675946975e-11       4.131375790799e-12      -8.532854988990e-15 
   61       2.694716238447e-10       4.041061811195e-14      -7.634473153532e-13       9.034487970581e-15       3.418796898544e-11       3.995455157790e-12      -8.659136508767e-15 
   62       2.715863162077e-10       4.209450480982e-14      -8.135614290309e-13       9.167726270524e-15       3.292947153381e-11       3.865356181126e-12      -8.793431748086e-15 
   63       2.737331468391e-10       4.381190765570e-14      -8.650913995419e-13       9.296191573684e-15       3.173133065002e-11       3.741119712201e-12      -8.932925834206e-15 
   64       2.759142247705e-10       4.556214296017e-14      -9.180224478757e-13       9.419787032000e-15       3.059223284277e-11       3.622648691461e-12      -9.074351846668e-15 
   65       2.781303272393e-10       4.734447096968e-14      -9.723385432792e-13       9.538426378621e-15       2.950940920517e-11       3.509700180225e-12      -9.213971512525e-15 
   66       2.803808114679e-10       4.915809497068e-14      -1.028022424496e-12       9.652034224547e-15       2.847855702561e-11       3.401877392505e-12      -9.347555901572e-15 
   67       2.826635264432e-10       5.100216039385e-14      -1.085055621005e-12       9.760546355271e-15       2.749376139859e-11       3.298621726826e-12      -9.470366121577e-15 
   68       2.849761954135e-10       5.287573172674e-14      -1.143418373897e-12       9.863905168630e-15       2.654907394834e-11       3.199368276780e-12      -9.577926933706e-15 
   69       2.873210858722e-10       5.477771982171e-14      -1.203089332408e-12       9.962044251856e-15       2.564379568667e-11       3.104066764622e-12      -9.668572777812e-15 
   70       2.897011317001e-10       5.670693818173e-14      -1.264045833768e-12       1.005490119797e-14       2.477812869788e-11       3.012752333140e-12      -9.741385329299e-15 
   71       2.921184964730e-10       5.866212241155e-14      -1.326264016460e-12       1.014242235732e-14       2.395157837640e-11       2.925387687124e-12      -9.795447181844e-15 
   72       2.945745228560e-10       6.064192875434e-14      -1.389718838896e-12       1.022456301000e-14       2.316291741911e-11       2.841859306238e-12      -9.829842821919e-15 
   73       2.970696819965e-10       6.264493262830e-14      -1.454384098083e-12       1.030128753816e-14       2.241014981756e-11       2.761973657871e-12      -9.843659603307e-15 
   74       2.996035229179e-10       6.466962716332e-14      -1.520232448305e-12       1.037256959843e-14       2.169047485025e-11       2.685453410009e-12      -9.835988721624e-15 
   75       3.021746219134e-10       6.671442173761e-14      -1.587235419786e-12       1.043839229425e-14       2.100025107488e-11       2.611933644091e-12      -9.805926188839e-15 
   76       3.047815187012e-10       6.877771238914e-14      -1.655363311753e-12       1.049874594747e-14       2.033589965226e-11       2.541054324092e-12      -9.753003590515e-15 
   77       3.074258338431e-10       7.085811110818e-14      -1.724584807815e-12       1.055362056279e-14       1.969688408753e-11       2.472765542504e-12      -9.678568889088e-15 
   78       3.101096305023e-10       7.295425589301e-14      -1.794867324047e-12       1.060301229592e-14       1.908321096483e-11       2.407071315575e-12      -9.584660357075e-15 
   79       3.128344482315e-10       7.506474259476e-14      -1.866177144213e-12       1.064692585368e-14       1.849452234511e-11       2.343936481198e-12      -9.473608761408e-15 
   80       3.156012726019e-10       7.718812492788e-14      -1.938479435866e-12       1.068537461711e-14       1.793007902013e-11       2.283284885577e-12      -9.348047150989e-15 
   81       3.184105048305e-10       7.932291448067e-14      -2.011738266444e-12       1.071838076465e-14       1.738874376648e-11       2.224997569909e-12      -9.210920644257e-15 
   82       3.212619314079e-10       8.146758072571e-14      -2.085916619367e-12       1.074597539523e-14       1.686896459960e-11       2.168910957053e-12      -9.065496216750e-15 
   83       3.241546937269e-10       8.362055103039e-14      -2.160976410130e-12       1.076819865146e-14       1.636875802781e-11       2.114815038205e-12      -8.915372488667e-15 
   84       3.270878763719e-10       8.578020366597e-14      -2.236877798553e-12       1.078509602144e-14       1.588619078473e-11       2.062506036387e-12      -8.763998685546e-15 
   85       3.300624505728e-10       8.794484548031e-14      -2.313576959252e-12       1.079670627029e-14       1.542095346682e-11       2.011958400107e-12      -8.613118454354e-15 
   86       3.330795987471e-10       9.011273052577e-14      -2.391027969350e-12       1.080307172440e-14       1.497301828163e-11       1.963178130529e-12      -8.464084810593e-15 
   87       3.361401048037e-10       9.228206662590e-14      -2.469183483673e-12       1.080424197287e-14       1.454215551938e-11       1.916149955269e-12      -8.318329543301e-15 
   88       3.392443341686e-10       9.445101526826e-14      -2.547994739013e-12       1.080027392646e-14       1.412792518472e-11       1.870836430642e-12      -8.177364753428e-15 
   89       3.423922138102e-10       9.661769149725e-14      -2.627411558401e-12       1.079123187652e-14       1.372966862860e-11       1.827177043915e-12      -8.042784392205e-15 
   90       3.455832122653e-10       9.878016380688e-14      -2.707382355370e-12       1.077718755383e-14       1.334650018000e-11       1.785087315555e-12      -7.916265799513e-15 
   91       3.488163196643e-10       1.009364540336e-13      -2.787854138223e-12       1.075822018762e-14       1.297729877781e-11       1.744457901483e-12      -7.799571242257e-15 
   92       3.520900277572e-10       1.030845372493e-13      -2.868772514300e-12       1.073441656441e-14       1.262069960258e-11       1.705153695323e-12      -7.694549452737e-15 
   93       3.554029074137e-10       1.052223928130e-13      -2.950082604113e-12       1.070586672258e-14       1.227541766855e-11       1.667046011213e-12      -7.602632534803e-15 
   94       3.587554838639e-10       1.073481665444e-13      -3.031731931749e-12       1.067265016715e-14       1.194129244739e-11       1.630116619011e-12      -7.523236787158e-15 
   95       3.621486078756e-10       1.094600328565e-13      -3.113667979093e-12       1.063484768101e-14       1.161838561502e-11       1.594367768952e-12      -7.455123088920e-15 
   96       3.655828717945e-10       1.115561463570e-13      -3.195837331233e-12       1.059254550354e-14       1.130665933002e-11       1.559790067540e-12      -7.396874784950e-15 
   97       3.690585977714e-10       1.136346424432e-13      -3.278185693211e-12       1.054583532968e-14       1.100597242222e-11       1.526362033891e-12      -7.346892297212e-15 
   98       3.725758259888e-10       1.156936378970e-13      -3.360657906784e-12       1.049481430891e-14       1.071607658122e-11       1.494049656081e-12      -7.303387736145e-15 
   99       3.761343028885e-10       1.177312314803e-13      -3.443197967178e-12       1.043958504425e-14       1.043661254501e-11       1.462805947480e-12      -7.264379512028e-15 
  100       3.797334693981e-10       1.197455045296e-13      -3.525749039845e-12       1.038025559130e-14       1.016710628850e-11       1.432570503099e-12      -7.227686946349e-15 
  101       3.833724491585e-10       1.217345215514e-13      -3.608253477221e-12       1.031693945723e-14       9.906965212117e-12       1.403269055933e-12      -7.190924883170e-15 
  102       3.870500367507e-10       1.236963308172e-13      -3.690652835484e-12       1.024975559976e-14       9.655474330357e-12       1.374813033298e-12      -7.151498300499e-15 
  103       3.907646859230e-10       1.256289649584e-13      -3.772887891305e-12       1.017882842626e-14       9.411792460361e-12       1.347099113178e-12      -7.106596921652e-15 
  104       3.945149262467e-10       1.275304809279e-13      -3.854898601316e-12       1.010428330208e-14       9.175142800806e-12       1.320033763120e-12      -7.053832732868e-15 
  105       3.983007025419e-10       1.293990847491e-13      -3.936623938161e-12       1.002623238717e-14       8.945422197662e-12       1.293611587706e-12      -6.993262222049e-15 
  106       4.021221952829e-10       1.312330248066e-13      -4.018002063430e-12       9.944786875428e-15       8.722667458906e-12       1.267846786845e-12      -6.925628540752e-15 
  107       4.059794013470e-10       1.330305549997e-13      -4.098970398914e-12       9.860061264779e-15       8.506866658667e-12       1.242748951238e-12      -6.851744648142e-15 
