# dimensionless total [l(l+1)/2pi] C_l's
# for l=2 to 5500, i.e. number of multipoles equal to 5499
#
# -> if you prefer output in CAMB/HealPix/LensPix units/order, set 'format' to 'camb' in input file
# -> if you don't want to see such a header, set 'headers' to 'no' in input file
# -> for CMB lensing (phi), these are C_l^phi-phi for the lensing potential.
#    Remember the conversion factors:
#    C_l^dd (deflection) = l(l+1) C_l^phi-phi
#    C_l^gg (shear/convergence) = 1/4 (l(l+1))^2 C_l^phi-phi
#
# 1:l     2:TT                     3:EE                     4:TE                     5:BB                     6:phiphi                 7:TPhi                   8:Ephi               
    2       2.867173424893e-10       7.832487336226e-15       5.600619477836e-13       4.820520023190e-15       8.251949144857e-09       4.776378475813e-10      -2.071094443493e-12 
    3       2.452644830697e-10       1.012404008159e-14       4.541094532684e-13       4.846633618692e-15       5.132332600389e-09       3.389020025378e-10      -1.656449208463e-12 
    4       2.260293479391e-10       9.658966438547e-15       3.885003135708e-13       4.207078057377e-15       3.574811690825e-09       2.565928877349e-10      -1.174671094213e-12 
    5       2.152048586981e-10       7.426390007269e-15       3.251849708189e-13       3.288867196992e-15       2.668775491263e-09       2.026241944717e-10      -7.450917287382e-13 
    6       2.080948625562e-10       4.868143626552e-15       2.624966712537e-13       2.381578591587e-15       2.083496030097e-09       1.648188571754e-10      -4.032485113295e-13 
    7       2.034530471565e-10       2.913903063003e-15       2.059387571837e-13       1.643347284570e-15       1.679818616143e-09       1.371452080943e-10      -1.578520236382e-13 
    8       2.004258494369e-10       1.797599461653e-15       1.590939202736e-13       1.126208517868e-15       1.388247490895e-09       1.161537069261e-10      -2.421232542426e-15 
    9       1.985342119441e-10       1.320394894207e-15       1.236103882774e-13       8.171198759642e-16       1.169613034996e-09       9.974639562247e-11       7.807432230599e-14 
   10       1.974317419764e-10       1.179641445008e-15       9.945703636783e-14       6.732527984653e-16       1.000441439095e-09       8.667632639456e-11       1.028301694569e-13 
   11       1.968906034376e-10       1.163409118267e-15       8.531241103142e-14       6.462329771307e-16       8.420820030032e-10       7.641563488401e-11       9.163839348054e-14 
   12       1.968093599350e-10       1.187712767332e-15       7.896716513457e-14       6.936263785321e-16       7.357665792261e-10       6.766806874475e-11       6.222983166047e-14 
   13       1.970104554616e-10       1.243864485478e-15       7.786211073938e-14       7.850093208634e-16       6.484964665015e-10       6.040090658872e-11       2.813890541438e-14 
   14       1.973986575490e-10       1.341184504453e-15       7.973613204299e-14       9.002120145637e-16       5.758833831136e-10       5.409869147022e-11      -1.838135428796e-15 
   15       1.979848143469e-10       1.477966103712e-15       8.283316502083e-14       1.028273002836e-15       5.147648520001e-10       4.880219100002e-11      -2.274786802406e-14 
   16       1.987646435467e-10       1.643611754990e-15       8.586672416487e-14       1.163635934815e-15       4.628012249267e-10       4.432260254695e-11      -3.353136700223e-14 
   17       1.995927099163e-10       1.829231545782e-15       8.818384797497e-14       1.303910800761e-15       4.182260241839e-10       4.045988394737e-11      -3.554347966286e-14 
   18       2.005179129097e-10       2.033115295950e-15       8.965179902617e-14       1.448567132059e-15       3.795364026222e-10       3.698070839686e-11      -3.167247037251e-14 
   19       2.015707535711e-10       2.259285561300e-15       9.040842769542e-14       1.597371977014e-15       3.461202493701e-10       3.388152741231e-11      -2.449239882388e-14 
   20       2.026526010460e-10       2.512864779881e-15       9.069622186976e-14       1.750198122654e-15       3.166890849638e-10       3.116641662126e-11      -1.690521627724e-14 
   21       2.037872878133e-10       2.795443049818e-15       9.078344894733e-14       1.906932926260e-15       2.907808426688e-10       2.880152331035e-11      -1.050945458471e-14 
   22       2.049783569770e-10       3.106761453085e-15       9.092209522809e-14       2.067538084049e-15       2.677761005255e-10       2.669808763751e-11      -6.425914610233e-15 
   23       2.062199006343e-10       3.445685800763e-15       9.108884085405e-14       2.231907911461e-15       2.473584568263e-10       2.481027272143e-11      -4.802776821413e-15 
   24       2.074679737115e-10       3.810531773210e-15       9.112085676383e-14       2.399944677755e-15       2.290556908627e-10       2.308585960377e-11      -5.281808054457e-15 
   25       2.087459026848e-10       4.201213708664e-15       9.080378674540e-14       2.571466544520e-15       2.126528228223e-10       2.152069045972e-11      -7.177846696182e-15 
   26       2.100673757501e-10       4.618058025719e-15       8.986295110822e-14       2.746272510052e-15       1.978534305159e-10       2.011041300697e-11      -9.568990515465e-15 
   27       2.114274794931e-10       5.061605838247e-15       8.802509743006e-14       2.924112275304e-15       1.844800438294e-10       1.884316092970e-11      -1.171154354814e-14 
   28       2.127986177147e-10       5.532461160930e-15       8.502214397749e-14       3.104732119023e-15       1.723020281452e-10       1.769500933897e-11      -1.295373930976e-14 
   29       2.141947247351e-10       6.031444575907e-15       8.076462169703e-14       3.287915841721e-15       1.612571125594e-10       1.665375053836e-11      -1.326824280046e-14 
   30       2.156204177588e-10       6.559444047505e-15       7.522701046005e-14       3.473472592279e-15       1.512265856683e-10       1.569876964466e-11      -1.287828627017e-14 
   31       2.170606555598e-10       7.117391523264e-15       6.840228084399e-14       3.661215667201e-15       1.420057388358e-10       1.480227821845e-11      -1.206320900292e-14 
   32       2.185232188957e-10       7.706399343247e-15       6.030791442654e-14       3.850903893927e-15       1.335470070129e-10       1.396506049175e-11      -1.101099730198e-14 
   33       2.200071820143e-10       8.327679821946e-15       5.098482467436e-14       4.042278451737e-15       1.257906916957e-10       1.319269098006e-11      -9.918551107470e-15 
   34       2.214992658000e-10       8.982398336804e-15       4.048304477294e-14       4.235077117820e-15       1.186283692503e-10       1.248579431153e-11      -8.991320762187e-15 
   35       2.230084396558e-10       9.671272385267e-15       2.881178328183e-14       4.429032245783e-15       1.120233934896e-10       1.184035625871e-11      -8.296873055304e-15 
   36       2.245402763613e-10       1.039482418771e-14       1.597281005049e-14       4.623871486307e-15       1.059227504534e-10       1.124654111931e-11      -7.861027939571e-15 
   37       2.260914426262e-10       1.115351855469e-14       1.960798130638e-15       4.819326979726e-15       1.002470148778e-10       1.069186009346e-11      -7.691306305411e-15 
   38       2.276675376913e-10       1.194789970310e-14      -1.328126073042e-14       5.015166322622e-15       9.498151948201e-11       1.017428772766e-11      -7.726762762883e-15 
   39       2.292689406357e-10       1.277849056834e-14      -2.983311516012e-14       5.211172065477e-15       9.010956115925e-11       9.692871650522e-12      -7.869368052128e-15 
   40       2.308845687278e-10       1.364575084818e-14      -4.778649514569e-14       5.407133937943e-15       8.558466945179e-11       9.243907933979e-12      -7.995225257522e-15 
   41       2.324990932162e-10       1.455010064938e-14      -6.722844500671e-14       5.602834242240e-15       8.134679698796e-11       8.822339037769e-12      -7.987002383412e-15 
   42       2.341201656850e-10       1.549201069415e-14      -8.818259671358e-14       5.797997359636e-15       7.738347158480e-11       8.427082942737e-12      -7.848064290879e-15 
   43       2.357581266087e-10       1.647193447104e-14      -1.106503195569e-13       5.992324475279e-15       7.368418077989e-11       8.057027143258e-12      -7.622598425889e-15 
   44       2.374178485927e-10       1.749028074864e-14      -1.346263642540e-13       6.185506540701e-15       7.022202174663e-11       7.709406567602e-12      -7.365284183282e-15 
   45       2.391004448147e-10       1.854738796121e-14      -1.601016479174e-13       6.377235274435e-15       6.696331168560e-11       7.380818916644e-12      -7.131187338560e-15 
   46       2.408103505324e-10       1.964344358040e-14      -1.870732984651e-13       6.567241580259e-15       6.390291996769e-11       7.070942916333e-12      -6.940356508826e-15 
   47       2.425493862527e-10       2.077853677943e-14      -2.155371102187e-13       6.755267535588e-15       6.103727936357e-11       6.779707713897e-12      -6.803713753917e-15 
   48       2.443142325113e-10       2.195267616637e-14      -2.454846088600e-13       6.941055788611e-15       5.835372921391e-11       6.506178480158e-12      -6.732882314989e-15 
   49       2.460959895270e-10       2.316578617076e-14      -2.769029332181e-13       7.124349594095e-15       5.582983923013e-11       6.248490804466e-12      -6.740198159343e-15 
   50       2.478846574133e-10       2.441772975187e-14      -3.097784381649e-13       7.304895958669e-15       5.344016412549e-11       6.004437743985e-12      -6.833789895926e-15 
   51       2.496850320850e-10       2.570839217286e-14      -3.441089304848e-13       7.482456000117e-15       5.118023777251e-11       5.773571031055e-12      -7.001217310860e-15 
   52       2.515043629505e-10       2.703761372022e-14      -3.798945499549e-13       7.656797461891e-15       4.904792313650e-11       5.555556812443e-12      -7.221411653260e-15 
   53       2.533476056308e-10       2.840516305135e-14      -4.171343940673e-13       7.827692027201e-15       4.703623191423e-11       5.349538779775e-12      -7.469003806177e-15 
   54       2.552172131691e-10       2.981073481983e-14      -4.558265749275e-13       7.994915501155e-15       4.513299802082e-11       5.154103277620e-12      -7.714103754742e-15 
   55       2.571141809498e-10       3.125397139136e-14      -4.959693043135e-13       8.158258404847e-15       4.332458878785e-11       4.967706563015e-12      -7.929367086940e-15 
   56       2.590419637504e-10       3.273453974925e-14      -5.375643341601e-13       8.317560422300e-15       4.160886619065e-11       4.790160811935e-12      -8.113755423661e-15 
   57       2.610031660572e-10       3.425206953440e-14      -5.806144704262e-13       8.472684829909e-15       3.998487355477e-11       4.621456152804e-12      -8.274292310704e-15 
   58       2.629982171473e-10       3.580612922373e-14      -6.251227146617e-13       8.623509409223e-15       3.844891443114e-11       4.461314339750e-12      -8.419355335141e-15 
   59       2.650252111446e-10       3.739622469406e-14      -6.710923609643e-13       8.769927034740e-15       3.699438339635e-11       4.309171866593e-12      -8.558739503832e-15 
   60       2.670797470752e-10       3.902179778603e-14      -7.185270929351e-13       8.911846261701e-15       3.561159685298e-11       4.164163080829e-12      -8.703720621923e-15 
   61       2.691571656160e-10       4.068223856182e-14      -7.674276966845e-13       9.049181955024e-15       3.429048153121e-11       4.025377724477e-12      -8.863884340188e-15 
   62       2.712602078705e-10       4.237692854247e-14      -8.177811183430e-13       9.181823388363e-15       3.302972795413e-11       3.892739309466e-12      -9.036638190847e-15 
   63       2.733927996870e-10       4.410520467145e-14      -8.695691112640e-13       9.309659994999e-15       3.182940066851e-11       3.766294835774e-12      -9.215447168271e-15 
   64       2.755577244235e-10       4.586634549540e-14      -9.227713930302e-13       9.432590961277e-15       3.068818487316e-11       3.645949745738e-12      -9.392821859631e-15 
   65       2.777565390488e-10       4.765957016258e-14      -9.773656350399e-13       9.550525498405e-15       2.960330789188e-11       3.531459745400e-12      -9.560279200529e-15 
   66       2.799894902431e-10       4.948403742122e-14      -1.033327452093e-12       9.663383114266e-15       2.857046064652e-11       3.422422625844e-12      -9.708303230615e-15 
   67       2.822554304989e-10       5.133884461792e-14      -1.090630391977e-12       9.771093885225e-15       2.758371912996e-11       3.318270084541e-12      -9.826305849216e-15 
   68       2.845530004439e-10       5.322301358360e-14      -1.149247795885e-12       9.873595560529e-15       2.663712607511e-11       3.218421336274e-12      -9.905061289983e-15 
   69       2.868846415430e-10       5.513544720916e-14      -1.209158840701e-12       9.970823586623e-15       2.572998365011e-11       3.122798371376e-12      -9.944670085114e-15 
   70       2.892532494911e-10       5.707496223114e-14      -1.270343707955e-12       1.006271954050e-14       2.486249706070e-11       3.031400889585e-12      -9.948145724008e-15 
   71       2.916609293401e-10       5.904030025268e-14      -1.332781858084e-12       1.014923430564e-14       2.403417382308e-11       2.944149779781e-12      -9.919107305907e-15 
   72       2.941089439839e-10       6.103012640656e-14      -1.396452067866e-12       1.023032826279e-14       2.324378769722e-11       2.860883079163e-12      -9.861803561983e-15 
   73       2.965976626432e-10       6.304302801825e-14      -1.461332467851e-12       1.030597148080e-14       2.248934262007e-11       2.781351932441e-12      -9.781136877439e-15 
   74       2.991265093507e-10       6.507751326891e-14      -1.527400579795e-12       1.037614390740e-14       2.176803663885e-11       2.705216551008e-12      -9.682687313604e-15 
   75       3.016939114356e-10       6.713200985849e-14      -1.594633354093e-12       1.044083555997e-14       2.107622584431e-11       2.632042172131e-12      -9.572736630028e-15 
   76       3.042982339921e-10       6.920492573286e-14      -1.663005488799e-12       1.050004292853e-14       2.041032864107e-11       2.561406176302e-12      -9.457250832946e-15 
   77       3.069408938877e-10       7.129484700540e-14      -1.732483950025e-12       1.055375700529e-14       1.976980865772e-11       2.493250922668e-12      -9.338560518866e-15 
   78       3.096237226549e-10       7.340037386610e-14      -1.803032515678e-12       1.060197340876e-14       1.915467278594e-11       2.427588212426e-12      -9.218116006439e-15 
   79       3.123480000944e-10       7.552006165598e-14      -1.874613407389e-12       1.064469608918e-14       1.856456258645e-11       2.364392105680e-12      -9.097477729334e-15 
   80       3.151144229788e-10       7.765242080286e-14      -1.947187292708e-12       1.068193744173e-14       1.799873750460e-11       2.303597160008e-12      -8.978318902075e-15 
   81       3.179230737556e-10       7.979591675704e-14      -2.020713287303e-12       1.071371841961e-14       1.745605808602e-11       2.245096669037e-12      -8.862428185875e-15 
   82       3.207733892506e-10       8.194896992703e-14      -2.095148957151e-12       1.074006864718e-14       1.693496919225e-11       2.188740901011e-12      -8.751712354474e-15 
   83       3.236641293711e-10       8.410995561525e-14      -2.170450320741e-12       1.076102653309e-14       1.643348321642e-11       2.134335337363e-12      -8.648198959972e-15 
   84       3.265940614701e-10       8.627720549107e-14      -2.246572551496e-12       1.077663630832e-14       1.594966300257e-11       2.081689891877e-12      -8.553482130985e-15 
   85       3.295642123469e-10       8.844901243136e-14      -2.323472214051e-12       1.078693832840e-14       1.548319935431e-11       2.030779801637e-12      -8.466948565401e-15 
   86       3.325759339355e-10       9.062362636826e-14      -2.401105404454e-12       1.079197736345e-14       1.503406548632e-11       1.981608302908e-12      -8.387260965094e-15 
   87       3.356302018524e-10       9.279925278532e-14      -2.479427096657e-12       1.079180559085e-14       1.460203231012e-11       1.934157130739e-12      -8.312882160769e-15 
   88       3.387275961287e-10       9.497405267909e-14      -2.558391156475e-12       1.078648265666e-14       1.418666004812e-11       1.888385614347e-12      -8.242068418675e-15 
   89       3.418682819403e-10       9.714614252060e-14      -2.637950355551e-12       1.077607573708e-14       1.378728984763e-11       1.844229772507e-12      -8.172862747321e-15 
   90       3.450519903399e-10       9.931359421700e-14      -2.718056385326e-12       1.076065959991e-14       1.340303539485e-11       1.801601408940e-12      -8.103088204189e-15 
   91       3.482779989881e-10       1.014744350730e-13      -2.798659870998e-12       1.074031666596e-14       1.303277452893e-11       1.760387207697e-12      -8.030341202452e-15 
   92       3.515451128842e-10       1.036266477526e-13      -2.879710385488e-12       1.071513707052e-14       1.267514085599e-11       1.720447828549e-12      -7.951984817685e-15 
   93       3.548521756765e-10       1.057682153791e-13      -2.961156344752e-12       1.068521400136e-14       1.232884785440e-11       1.681652833731e-12      -7.865836785344e-15 
   94       3.581997334111e-10       1.078972646787e-13      -3.042944645364e-12       1.065062877731e-14       1.199373516560e-11       1.643993441929e-12      -7.772366396464e-15 
   95       3.615885865492e-10       1.100119443945e-13      -3.125020997990e-12       1.061146362866e-14       1.166986489290e-11       1.607485138871e-12      -7.672817177448e-15 
   96       3.650192698593e-10       1.121103826403e-13      -3.207330053355e-12       1.056780621728e-14       1.135719936073e-11       1.572132949749e-12      -7.568544444300e-15 
   97       3.684920404316e-10       1.141906874810e-13      -3.289815414582e-12       1.051974963322e-14       1.105559729272e-11       1.537931026456e-12      -7.461018145250e-15 
   98       3.720068656926e-10       1.162509475141e-13      -3.372419649524e-12       1.046739239133e-14       1.076480998980e-11       1.504862234827e-12      -7.351825703369e-15 
   99       3.755634114192e-10       1.182892324508e-13      -3.455084303101e-12       1.041083842786e-14       1.048447750825e-11       1.472897741873e-12      -7.242674859195e-15 
  100       3.791610297532e-10       1.203035936972e-13      -3.537749909637e-12       1.035019709704e-14       1.021412483778e-11       1.441996603025e-12      -7.135396513352e-15 
  101       3.827987472158e-10       1.222920649353e-13      -3.620356005193e-12       1.028558316774e-14       9.953158079611e-12       1.412105349371e-12      -7.031947569170e-15 
  102       3.864752527220e-10       1.242526627046e-13      -3.702841139906e-12       1.021711682004e-14       9.700860624533e-12       1.383157574891e-12      -6.934413775307e-15 
  103       3.901888855948e-10       1.261833869827e-13      -3.785142890324e-12       1.014492364181e-14       9.456389331000e-12       1.355073523698e-12      -6.845012568370e-15 
  104       3.939380721038e-10       1.280822659093e-13      -3.867198397091e-12       1.006913020939e-14       9.218965610291e-12       1.327778305565e-12      -6.765567212012e-15 
  105       3.977227280549e-10       1.299474955868e-13      -3.948946034173e-12       9.989850156729e-15       8.988486311582e-12       1.301260233906e-12      -6.695842189988e-15 
  106       4.015430242076e-10       1.317773203357e-13      -4.030323989166e-12       9.907196209266e-15       8.764988617545e-12       1.275519635586e-12      -6.634987201613e-15 
  107       4.053989476985e-10       1.335699912924e-13      -4.111269775975e-12       9.821284380598e-15       8.548460846497e-12       1.250550720815e-12      -6.582042853726e-15 
