# dimensionless [l(l+1)/2pi] C_l's for scalar mode
# for l=2 to 5500, i.e. number of multipoles equal to 5499
#
# -> if you prefer output in CAMB/HealPix/LensPix units/order, set 'format' to 'camb' in input file
# -> if you don't want to see such a header, set 'headers' to 'no' in input file
# -> for CMB lensing (phi), these are C_l^phi-phi for the lensing potential.
#    Remember the conversion factors:
#    C_l^dd (deflection) = l(l+1) C_l^phi-phi
#    C_l^gg (shear/convergence) = 1/4 (l(l+1))^2 C_l^phi-phi
#
# 1:l     2:TT                     3:EE                     4:TE                     5:BB                     6:phiphi                 7:TPhi                   8:Ephi               
    2       1.370366454236e-10       4.870386557513e-15       3.732674137019e-13       0.000000000000e+00       8.031812684531e-09       4.554600891127e-10      -1.970215385948e-12 
    3       1.294717462225e-10       6.939666834500e-15       4.392372384845e-13       0.000000000000e+00       5.013360068585e-09       3.240173388725e-10      -1.582257103123e-12 
    4       1.222246698054e-10       6.761314061649e-15       4.276969542294e-13       0.000000000000e+00       3.498180306251e-09       2.457064730322e-10      -1.126601247404e-12 
    5       1.167094211656e-10       5.154136204455e-15       3.785432339154e-13       0.000000000000e+00       2.615089777465e-09       1.943448447186e-10      -7.179097807984e-13 
    6       1.128374807237e-10       3.267599269201e-15       3.159744842546e-13       0.000000000000e+00       2.043774211870e-09       1.583361771081e-10      -3.910645579988e-13 
    7       1.102891817362e-10       1.845053387682e-15       2.550131214691e-13       0.000000000000e+00       1.648977216323e-09       1.318484462243e-10      -1.552308137355e-13 
    8       1.086898084322e-10       1.060050106188e-15       2.035216242209e-13       0.000000000000e+00       1.363481918773e-09       1.117043884688e-10      -4.900259043382e-15 
    9       1.078627521877e-10       7.349342244020e-16       1.647668277031e-13       0.000000000000e+00       1.149400603569e-09       9.603477529225e-11       7.377092894228e-14 
   10       1.076360532299e-10       6.188789722567e-16       1.390566083085e-13       0.000000000000e+00       9.837930617754e-10       8.358443299416e-11       9.878401109749e-14 
   11       1.077963729958e-10       5.501482370128e-16       1.249662256691e-13       0.000000000000e+00       8.276575168370e-10       7.366365196998e-11       8.882478584261e-14 
   12       1.083200048351e-10       4.796907541288e-16       1.200704563362e-13       0.000000000000e+00       7.234746286261e-10       6.525762025903e-11       6.105329278583e-14 
   13       1.091002196774e-10       4.199188275797e-16       1.216443075092e-13       0.000000000000e+00       6.379174537532e-10       5.818244272951e-11       2.813978820644e-14 
   14       1.100825208837e-10       3.901393483916e-16       1.272028006143e-13       0.000000000000e+00       5.666992782287e-10       5.224104120096e-11      -9.410954807089e-16 
   15       1.112501871923e-10       3.932388121126e-16       1.347365997501e-13       0.000000000000e+00       5.067347803536e-10       4.721643192412e-11      -2.145592110200e-14 
   16       1.125312555668e-10       4.197563999555e-16       1.429639028508e-13       0.000000000000e+00       4.557352033375e-10       4.288749990011e-11      -3.223299234795e-14 
   17       1.139801123479e-10       4.603706223196e-16       1.511545554406e-13       0.000000000000e+00       4.119708830446e-10       3.903046073589e-11      -3.467586334542e-14 
   18       1.155112245148e-10       5.130266410719e-16       1.589789502327e-13       0.000000000000e+00       3.739723554245e-10       3.567478881491e-11      -3.116015794684e-14 
   19       1.171244055199e-10       5.816769797509e-16       1.665497530969e-13       0.000000000000e+00       3.411434376948e-10       3.277570376428e-11      -2.416958058895e-14 
   20       1.188105443696e-10       6.714187851578e-16       1.741235982883e-13       0.000000000000e+00       3.122214779287e-10       3.016788163721e-11      -1.672665472551e-14 
   21       1.205702722090e-10       7.841626429000e-16       1.819076395026e-13       0.000000000000e+00       2.867545938261e-10       2.784288645841e-11      -1.046466163354e-14 
   22       1.223790256964e-10       9.200570117922e-16       1.900617906411e-13       0.000000000000e+00       2.641359880893e-10       2.580326562435e-11      -6.497745582358e-15 
   23       1.242475958635e-10       1.078084909370e-15       1.985406585502e-13       0.000000000000e+00       2.440559674985e-10       2.401154442130e-11      -4.886327257301e-15 
   24       1.261752794924e-10       1.256584905284e-15       2.071789720489e-13       0.000000000000e+00       2.260514549409e-10       2.239222432122e-11      -5.184540663366e-15 
   25       1.281531176043e-10       1.455665180560e-15       2.157479713191e-13       0.000000000000e+00       2.099118116010e-10       2.090776299398e-11      -6.815669839283e-15 
   26       1.301573433849e-10       1.675812025092e-15       2.239577849646e-13       0.000000000000e+00       1.953462472478e-10       1.952484918196e-11      -9.028966824021e-15 
   27       1.321960584932e-10       1.917300392617e-15       2.315433237438e-13       0.000000000000e+00       1.821811872909e-10       1.826040789096e-11      -1.112574354463e-14 
   28       1.342768775458e-10       2.180377167620e-15       2.382423301380e-13       0.000000000000e+00       1.701907733344e-10       1.713491090772e-11      -1.244951300244e-14 
   29       1.364051043254e-10       2.466043866689e-15       2.439146688742e-13       0.000000000000e+00       1.593140372734e-10       1.613643430191e-11      -1.292457286938e-14 
   30       1.385721530426e-10       2.775587863493e-15       2.484549999253e-13       0.000000000000e+00       1.494341872316e-10       1.522841418239e-11      -1.269729792756e-14 
   31       1.407596565128e-10       3.110374380914e-15       2.517795273599e-13       0.000000000000e+00       1.403498091246e-10       1.436716746884e-11      -1.196906673687e-14 
   32       1.429734778820e-10       3.471791910284e-15       2.539069038766e-13       0.000000000000e+00       1.320144135627e-10       1.355461629599e-11      -1.092502048704e-14 
   33       1.452199779707e-10       3.861295694293e-15       2.549113091060e-13       0.000000000000e+00       1.243696751352e-10       1.280399884792e-11      -9.786972815381e-15 
   34       1.474979971831e-10       4.280289424951e-15       2.548718782037e-13       0.000000000000e+00       1.173092841488e-10       1.212326272873e-11      -8.790730272146e-15 
   35       1.498057588718e-10       4.729647830114e-15       2.537602009961e-13       0.000000000000e+00       1.107973005859e-10       1.150612611674e-11      -8.028053794450e-15 
   36       1.521345982032e-10       5.210018408669e-15       2.515139655363e-13       0.000000000000e+00       1.047815514098e-10       1.093688184037e-11      -7.551111905354e-15 
   37       1.544727219567e-10       5.721988329180e-15       2.480682026832e-13       0.000000000000e+00       9.918384339584e-11       1.039775097258e-11      -7.390796385907e-15 
   38       1.568277631122e-10       6.266254818067e-15       2.433625887711e-13       0.000000000000e+00       9.398983058183e-11       9.888284557693e-12      -7.477185123097e-15 
   39       1.592106145192e-10       6.843501407355e-15       2.373358944560e-13       0.000000000000e+00       8.918317466286e-11       9.411797746395e-12      -7.690413096392e-15 
   40       1.616288377605e-10       7.454346919645e-15       2.299236121511e-13       0.000000000000e+00       8.471820978059e-11       8.969956401111e-12      -7.879295073647e-15 
   41       1.640858631586e-10       8.099386411251e-15       2.210625917952e-13       0.000000000000e+00       8.053588086316e-11       8.562584990905e-12      -7.901359224261e-15 
   42       1.665793189146e-10       8.779340150819e-15       2.107075440745e-13       0.000000000000e+00       7.662395101736e-11       8.187427675224e-12      -7.763610298236e-15 
   43       1.691014282376e-10       9.494946053048e-15       1.988193627673e-13       0.000000000000e+00       7.297208605488e-11       7.840020547058e-12      -7.524096795248e-15 
   44       1.716388783677e-10       1.024691762664e-14       1.853606436788e-13       0.000000000000e+00       6.955378439129e-11       7.513535489161e-12      -7.254561952108e-15 
   45       1.741781419360e-10       1.103588931248e-14       1.702998173411e-13       0.000000000000e+00       6.633585878293e-11       7.200796919151e-12      -7.025676347317e-15 
   46       1.767244190941e-10       1.186223566733e-14       1.536249769343e-13       0.000000000000e+00       6.331329559444e-11       6.901458686929e-12      -6.855533804373e-15 
   47       1.792875780497e-10       1.272619620572e-14       1.353342157746e-13       0.000000000000e+00       6.048262716176e-11       6.616678502953e-12      -6.747156193464e-15 
   48       1.818767440646e-10       1.362792014036e-14       1.154321207519e-13       0.000000000000e+00       5.783141753392e-11       6.347068788080e-12      -6.702672386765e-15 
   49       1.845001736236e-10       1.456746217182e-14       9.393002773527e-14       0.000000000000e+00       5.533759527954e-11       6.092649781043e-12      -6.723242529814e-15 
   50       1.871638819244e-10       1.554484279408e-14       7.083756290404e-14       0.000000000000e+00       5.297611021270e-11       5.852993765707e-12      -6.807176399285e-15 
   51       1.898673780687e-10       1.656025827697e-14       4.613396742328e-14       0.000000000000e+00       5.074258161140e-11       5.627812696221e-12      -6.943862041185e-15 
   52       1.926065547309e-10       1.761392040324e-14       1.978943066054e-14       0.000000000000e+00       4.863491575587e-11       5.416449019465e-12      -7.118058228564e-15 
   53       1.953746535392e-10       1.870599578774e-14      -8.227027029277e-15       0.000000000000e+00       4.664622815162e-11       5.217661496510e-12      -7.311399438450e-15 
   54       1.981620805777e-10       1.983660470314e-14      -3.794770897205e-14       0.000000000000e+00       4.476452099097e-11       5.029587303962e-12      -7.502235139057e-15 
   55       2.009596206599e-10       2.100580880837e-14      -6.940307526683e-14       0.000000000000e+00       4.297634789431e-11       4.850255047196e-12      -7.670939105582e-15 
   56       2.037694378774e-10       2.221357345418e-14      -1.026109664504e-13       0.000000000000e+00       4.127961314669e-11       4.679359862636e-12      -7.817750074209e-15 
   57       2.065964846613e-10       2.345979395657e-14      -1.375849736728e-13       0.000000000000e+00       3.967338711494e-11       4.516862906525e-12      -7.949081588488e-15 
   58       2.094452914948e-10       2.474430430188e-14      -1.743375504311e-13       0.000000000000e+00       3.815403399465e-11       4.362463001596e-12      -8.072491540317e-15 
   59       2.123199148350e-10       2.606687554011e-14      -2.128800378248e-13       0.000000000000e+00       3.671504462027e-11       4.215580202524e-12      -8.196734575147e-15 
   60       2.152238850348e-10       2.742721417825e-14      -2.532226898124e-13       0.000000000000e+00       3.534686927527e-11       4.075339361371e-12      -8.331814497192e-15 
   61       2.181600213969e-10       2.882495904392e-14      -2.953714984516e-13       0.000000000000e+00       3.403957233722e-11       3.940830580510e-12      -8.486024246422e-15 
   62       2.211299466429e-10       3.025967468845e-14      -3.393177797609e-13       0.000000000000e+00       3.279187074640e-11       3.811996066722e-12      -8.656170874042e-15 
   63       2.241343705520e-10       3.173085364522e-14      -3.850462844720e-13       0.000000000000e+00       3.160383687004e-11       3.688914083554e-12      -8.835239466459e-15 
   64       2.271731580324e-10       3.323791620625e-14      -4.325381170070e-13       0.000000000000e+00       3.047417957374e-11       3.571532131997e-12      -9.015169639458e-15 
   65       2.302452728277e-10       3.478020876698e-14      -4.817706592003e-13       0.000000000000e+00       2.940016656622e-11       3.459659301371e-12      -9.186812361335e-15 
   66       2.333487212225e-10       3.635700217104e-14      -5.327174940209e-13       0.000000000000e+00       2.837754674418e-11       3.352958620193e-12      -9.339886776038e-15 
   67       2.364804957484e-10       3.796749005504e-14      -5.853483292943e-13       0.000000000000e+00       2.740047253708e-11       3.250939407063e-12      -9.462937026301e-15 
   68       2.396376876350e-10       3.961080133668e-14      -6.396322542969e-13       0.000000000000e+00       2.646306287814e-11       3.153094942522e-12      -9.546068707284e-15 
   69       2.428212117485e-10       4.128604431721e-14      -6.955484463010e-13       0.000000000000e+00       2.556463345747e-11       3.059364976061e-12      -9.589898611925e-15 
   70       2.460327387625e-10       4.299226858285e-14      -7.530775063965e-13       0.000000000000e+00       2.470539162209e-11       2.969753624588e-12      -9.598349206936e-15 
   71       2.492735672655e-10       4.472845038185e-14      -8.121983273693e-13       0.000000000000e+00       2.388485446376e-11       2.884188481426e-12      -9.576056868896e-15 
   72       2.525445973582e-10       4.649349133100e-14      -8.728881026630e-13       0.000000000000e+00       2.310181312348e-11       2.802516683842e-12      -9.528399797680e-15 
   73       2.558463042503e-10       4.828621712212e-14      -9.351223353403e-13       0.000000000000e+00       2.235429709609e-11       2.724500980572e-12      -9.461525929893e-15 
   74       2.591787118580e-10       5.010537622858e-14      -9.988748470455e-13       0.000000000000e+00       2.163953853481e-11       2.649815799350e-12      -9.382380852299e-15 
   75       2.625413664010e-10       5.194963861181e-14      -1.064117786965e-12       0.000000000000e+00       2.095393655578e-11       2.578043314430e-12      -9.298735715254e-15 
   76       2.659337499815e-10       5.381763994886e-14      -1.130821259229e-12       0.000000000000e+00       2.029395176590e-11       2.508776486120e-12      -9.217531319871e-15 
   77       2.693566667556e-10       5.570812648560e-14      -1.198952106859e-12       0.000000000000e+00       1.965905707360e-11       2.441958564731e-12      -9.139500062927e-15 
   78       2.728110627426e-10       5.761983437091e-14      -1.268474921319e-12       0.000000000000e+00       1.904926262121e-11       2.377598639937e-12      -9.063609434340e-15 
   79       2.762975911682e-10       5.955144612474e-14      -1.339352405520e-12       0.000000000000e+00       1.846421694663e-11       2.315668450270e-12      -8.988652332611e-15 
   80       2.798165950842e-10       6.150159027801e-14      -1.411545374963e-12       0.000000000000e+00       1.790319036281e-11       2.256100644196e-12      -8.913240450040e-15 
   81       2.833680899875e-10       6.346884101264e-14      -1.485012758871e-12       0.000000000000e+00       1.736505833735e-11       2.198787041190e-12      -8.835797657933e-15 
   82       2.869517464394e-10       6.545171780143e-14      -1.559711601332e-12       0.000000000000e+00       1.684828487198e-11       2.143576892807e-12      -8.754553391814e-15 
   83       2.905668726852e-10       6.744868504806e-14      -1.635597062430e-12       0.000000000000e+00       1.635090588214e-11       2.090275143760e-12      -8.667536036632e-15 
   84       2.942127544868e-10       6.945816135457e-14      -1.712622203321e-12       0.000000000000e+00       1.587100697988e-11       2.038692320013e-12      -8.573138281276e-15 
   85       2.978897774232e-10       7.147854987790e-14      -1.790737298008e-12       0.000000000000e+00       1.540828423569e-11       1.988807504640e-12      -8.471935358238e-15 
   86       3.015984596421e-10       7.350821236908e-14      -1.869890409026e-12       0.000000000000e+00       1.496271288815e-11       1.940629317300e-12      -8.365157503159e-15 
   87       3.053390999797e-10       7.554545979781e-14      -1.950027590908e-12       0.000000000000e+00       1.453406775689e-11       1.894145831010e-12      -8.254147739647e-15 
   88       3.091117665829e-10       7.758855215424e-14      -2.031092887692e-12       0.000000000000e+00       1.412191493151e-11       1.849323700905e-12      -8.140364877421e-15 
   89       3.129162855329e-10       7.963569825066e-14      -2.113028330427e-12       0.000000000000e+00       1.372560346032e-11       1.806107292991e-12      -8.025386510449e-15 
   90       3.167522294677e-10       8.168505552335e-14      -2.195773934676e-12       0.000000000000e+00       1.334425703925e-11       1.764417812900e-12      -7.910912015084e-15 
   91       3.206189062054e-10       8.373472983426e-14      -2.279267698026e-12       0.000000000000e+00       1.297676570062e-11       1.724152434646e-12      -7.798765548209e-15 
   92       3.245153473667e-10       8.578277527283e-14      -2.363445597595e-12       0.000000000000e+00       1.262177750204e-11       1.685183429379e-12      -7.690899045369e-15 
   93       3.284406149606e-10       8.782724138437e-14      -2.448243190951e-12       0.000000000000e+00       1.227801951113e-11       1.647389463048e-12      -7.588998074134e-15 
   94       3.323947985987e-10       8.986632341130e-14      -2.533600699741e-12       0.000000000000e+00       1.194533403507e-11       1.610756766312e-12      -7.493225071889e-15 
   95       3.363781479244e-10       9.189823438682e-14      -2.619458689588e-12       0.000000000000e+00       1.162378359876e-11       1.575291640543e-12      -7.403291754669e-15 
   96       3.403907610961e-10       9.392116016837e-14      -2.705756554053e-12       0.000000000000e+00       1.131333179511e-11       1.540989220789e-12      -7.318836999620e-15 
   97       3.444325777742e-10       9.593325989034e-14      -2.792432534153e-12       0.000000000000e+00       1.101383949413e-11       1.507833046099e-12      -7.239424391598e-15 
   98       3.485033721090e-10       9.793266641689e-14      -2.879423737874e-12       0.000000000000e+00       1.072506105192e-11       1.475794629860e-12      -7.164539769766e-15 
   99       3.526027457282e-10       9.991748679474e-14      -2.966666159687e-12       0.000000000000e+00       1.044664051971e-11       1.444833030129e-12      -7.093588774194e-15 
  100       3.567301207241e-10       1.018858027059e-13      -3.054094700068e-12       0.000000000000e+00       1.017810785292e-11       1.414894419962e-12      -7.025894392454e-15 
  101       3.608847326415e-10       1.038356709205e-13      -3.141643185007e-12       0.000000000000e+00       9.918875120110e-12       1.385911657753e-12      -6.960694506221e-15 
  102       3.650656234652e-10       1.057651237495e-13      -3.229244385532e-12       0.000000000000e+00       9.668232712083e-12       1.357803857557e-12      -6.897139437869e-15 
  103       3.692716346073e-10       1.076721694976e-13      -3.316830037219e-12       0.000000000000e+00       9.425345550871e-12       1.330475959433e-12      -6.834289497070e-15 
  104       3.735016522563e-10       1.095548374474e-13      -3.404331162931e-12       0.000000000000e+00       9.189442522827e-12       1.303840674549e-12      -6.771305426209e-15 
  105       3.777553962721e-10       1.114113187582e-13      -3.491679048651e-12       0.000000000000e+00       8.960422086587e-12       1.277888622141e-12      -6.708054320183e-15 
  106       3.820327252819e-10       1.132398455333e-13      -3.578804436466e-12       0.000000000000e+00       8.738321787298e-12       1.252626910121e-12      -6.644581364735e-15 
  107       3.863333896476e-10       1.150386489188e-13      -3.665637255690e-12       0.000000000000e+00       8.523130690467e-12       1.228057424778e-12      -6.580923917194e-15 
