# dimensionless total lensed [l(l+1)/2pi] C_l's
# for l=2 to 5000, i.e. number of multipoles equal to 4999
#
# -> if you prefer output in CAMB/HealPix/LensPix units/order, set 'format' to 'camb' in input file
# -> if you don't want to see such a header, set 'headers' to 'no' in input file
# -> for CMB lensing (phi), these are C_l^phi-phi for the lensing potential.
#    Remember the conversion factors:
#    C_l^dd (deflection) = l(l+1) C_l^phi-phi
#    C_l^gg (shear/convergence) = 1/4 (l(l+1))^2 C_l^phi-phi
#
# 1:l     2:TT                     3:EE                     4:TE                     5:BB                     6:phiphi                 7:TPhi                   8:Ephi               
    2       2.865955998283e-10       7.887710282356e-15       5.644416319883e-13       4.852173189132e-15       8.367307449963e-09       4.722432673221e-10      -2.078006088109e-12 
    3       2.447272557163e-10       1.020542256285e-14       4.559186455979e-13       4.883690588594e-15       5.145823397469e-09       3.348625247998e-10      -1.663874981333e-12 
    4       2.256174503144e-10       9.753844167774e-15       3.898850154374e-13       4.244324462266e-15       3.575598677633e-09       2.536963712582e-10      -1.181422696326e-12 
    5       2.148577400632e-10       7.513439363934e-15       3.262435201850e-13       3.322220873082e-15       2.668406999874e-09       2.004373416835e-10      -7.507435405415e-13 
    6       2.078075305579e-10       4.934076589677e-15       2.632984123454e-13       2.408796697237e-15       2.084538572647e-09       1.630742364950e-10      -4.076622340887e-13 
    7       2.031869396546e-10       2.956251214467e-15       2.065150916365e-13       1.663959541102e-15       1.682040620856e-09       1.356917159839e-10      -1.609314551494e-13 
    8       2.002127834167e-10       1.821750982460e-15       1.594909019460e-13       1.140985444083e-15       1.390512410653e-09       1.149300641087e-10      -4.202306793375e-15 
    9       1.983369951010e-10       1.334320764067e-15       1.238974612711e-13       8.272918022568e-16       1.171178686810e-09       9.871201735197e-11       7.741535298178e-14 
   10       1.972739853015e-10       1.189318183267e-15       9.963760333421e-14       6.804132236124e-16       1.001194693039e-09       8.577189635982e-11       1.030081221778e-13 
   11       1.967740962066e-10       1.171946051266e-15       8.530939067061e-14       6.514946560988e-16       8.423800238513e-10       7.560357740323e-11       9.227574896235e-14 
   12       1.966421674122e-10       1.195522745070e-15       7.881654380521e-14       6.981874764118e-16       7.359442255380e-10       6.699105952008e-11       6.319474998841e-14 
   13       1.968712851247e-10       1.250880341583e-15       7.769980066804e-14       7.895041532552e-16       6.485725604082e-10       5.965025874068e-11       2.884596259852e-14 
   14       1.973079391441e-10       1.347511199595e-15       7.957079165604e-14       9.050783915004e-16       5.758852882571e-10       5.357392352379e-11      -1.199742207747e-15 
   15       1.978986698026e-10       1.483806231125e-15       8.264352967038e-14       1.033976663357e-15       5.147161998342e-10       4.841109238005e-11      -2.232528183067e-14 
   16       1.986604894214e-10       1.649550846936e-15       8.569114036137e-14       1.170071555242e-15       4.627119859392e-10       4.384326424675e-11      -3.356477946017e-14 
   17       1.995198597452e-10       1.835084924980e-15       8.798528617187e-14       1.311422882531e-15       4.181029743725e-10       3.992386515898e-11      -3.590639577646e-14 
   18       2.004632729372e-10       2.038833158473e-15       8.943417369975e-14       1.457149370256e-15       3.793874373432e-10       3.649716088155e-11      -3.212929145855e-14 
   19       2.015137379960e-10       2.264805656814e-15       9.017892826106e-14       1.606971919471e-15       3.459526578624e-10       3.349596015360e-11      -2.490723608214e-14 
   20       2.025979793275e-10       2.517960962837e-15       9.043664740578e-14       1.760933375856e-15       3.165078496570e-10       3.083362111136e-11      -1.729237847856e-14 
   21       2.037436810803e-10       2.800010866134e-15       9.047022526244e-14       1.918936035686e-15       2.905898877534e-10       2.847759265885e-11      -1.090188186801e-14 
   22       2.049508456279e-10       3.110897472695e-15       9.053800143883e-14       2.080903174892e-15       2.675784587280e-10       2.637395749218e-11      -6.823547903134e-15 
   23       2.062117135515e-10       3.449429213767e-15       9.064318637080e-14       2.246717031594e-15       2.471566952328e-10       2.449209446768e-11      -5.155860175187e-15 
   24       2.074803663970e-10       3.813793308983e-15       9.065262479377e-14       2.416273424684e-15       2.288518308136e-10       2.278986109139e-11      -5.489359071430e-15 
   25       2.087764795626e-10       4.203956404966e-15       9.034123688911e-14       2.589376450223e-15       2.124479790984e-10       2.127013989882e-11      -7.144519849121e-15 
   26       2.101104071831e-10       4.620316919918e-15       8.941220584207e-14       2.765815259006e-15       1.976478068611e-10       1.992726249730e-11      -9.253914095790e-15 
   27       2.114803481897e-10       5.063246909417e-15       8.759596151572e-14       2.945370332538e-15       1.842742415873e-10       1.871150441198e-11      -1.124547486612e-14 
   28       2.128636312298e-10       5.533136131891e-15       8.463404005364e-14       3.127827469148e-15       1.720973666585e-10       1.755647523026e-11      -1.264117645129e-14 
   29       2.142745483513e-10       6.030878269002e-15       8.043110409050e-14       3.312964449027e-15       1.610547022486e-10       1.646862514401e-11      -1.330687437155e-14 
   30       2.157164607546e-10       6.557559067768e-15       7.494868101010e-14       3.500565627999e-15       1.510269471788e-10       1.547326650824e-11      -1.322922096460e-14 
   31       2.171728967610e-10       7.114292687455e-15       6.816753461145e-14       3.690420880681e-15       1.418088132543e-10       1.458668600784e-11      -1.245806331968e-14 
   32       2.186508156058e-10       7.702097292829e-15       6.010927114162e-14       3.882299428891e-15       1.333527564937e-10       1.379771255702e-11      -1.122618351060e-14 
   33       2.201485696574e-10       8.321974001072e-15       5.082571844190e-14       4.075966751789e-15       1.255993378062e-10       1.307724475053e-11      -9.885061896929e-15 
   34       2.216521338380e-10       8.974895274649e-15       4.037773830934e-14       4.271183058716e-15       1.184403851826e-10       1.239219724375e-11      -8.796567074150e-15 
   35       2.231700012503e-10       9.661653768824e-15       2.877459265480e-14       4.467674044317e-15       1.118391427338e-10       1.174193809117e-11      -8.039603129156e-15 
   36       2.247073476678e-10       1.038295482866e-14       1.601427681463e-14       4.665149077156e-15       1.057423562748e-10       1.113372896102e-11      -7.602129240374e-15 
   37       2.262609094336e-10       1.113943197951e-14       2.087252920196e-15       4.863323787874e-15       1.000703752509e-10       1.057217843526e-11      -7.452206635202e-15 
   38       2.278384086967e-10       1.193157875925e-14      -1.306588953380e-14       5.061973538370e-15       9.480850847481e-11       1.005683141030e-11      -7.521277941476e-15 
   39       2.294433856801e-10       1.275978497977e-14      -2.952706602620e-14       5.260897908314e-15       8.994010723021e-11       9.583296946675e-12      -7.712654318685e-15 
   40       2.310685853543e-10       1.362434716440e-14      -4.739056703317e-14       5.459907185961e-15       8.541878720551e-11       9.143501104744e-12      -7.903769022665e-15 
   41       2.327018340762e-10       1.452554112701e-14      -6.674531081791e-14       5.658802694538e-15       8.118458565506e-11       8.728212259096e-12      -7.976855680096e-15 
   42       2.343486257187e-10       1.546388276570e-14      -8.761240199627e-14       5.857308572692e-15       7.722499431935e-11       8.336342724584e-12      -7.927146959426e-15 
   43       2.360150288503e-10       1.643994191544e-14      -1.099888225968e-13       6.055118833856e-15       7.352942877201e-11       7.968159111699e-12      -7.786990551170e-15 
   44       2.377007267843e-10       1.745427033673e-14      -1.338640199181e-13       6.251914986680e-15       7.007091105504e-11       7.622601932161e-12      -7.596974601430e-15 
   45       2.394021036939e-10       1.850734552859e-14      -1.592238298175e-13       6.447379485215e-15       6.681569388962e-11       7.297847268725e-12      -7.399373355050e-15 
   46       2.411240769635e-10       1.959938378356e-14      -1.860644698447e-13       6.641242696511e-15       6.375863881311e-11       6.993455577884e-12      -7.214960930849e-15 
   47       2.428707383947e-10       2.073047005482e-14      -2.143821342738e-13       6.833248659286e-15       6.089619544742e-11       6.708675047930e-12      -7.060122243596e-15 
   48       2.446415488054e-10       2.190060479898e-14      -2.441689829503e-13       7.023142124369e-15       5.821573313714e-11       6.441752701780e-12      -6.953403576700e-15 
   49       2.464309263693e-10       2.310970008159e-14      -2.754130374686e-13       7.210668600664e-15       5.569486570266e-11       6.189861343816e-12      -6.915609608137e-15 
   50       2.482318245121e-10       2.435759868421e-14      -3.081022188316e-13       7.395577143118e-15       5.330819231212e-11       5.949939573619e-12      -6.963214645636e-15 
   51       2.500485655819e-10       2.564414657470e-14      -3.422379933498e-13       7.577629502126e-15       5.105124374899e-11       5.721650114856e-12      -7.086262827348e-15 
   52       2.518867791525e-10       2.696913337643e-14      -3.778252513037e-13       7.756593537081e-15       4.892186888248e-11       5.505098214475e-12      -7.264636895724e-15 
   53       2.537494983271e-10       2.833226834081e-14      -4.148685781060e-13       7.932240862295e-15       4.691306813537e-11       5.299959387466e-12      -7.474007256735e-15 
   54       2.556369358208e-10       2.973317753529e-14      -4.533723453725e-13       8.104347021993e-15       4.501266723098e-11       5.105449331567e-12      -7.685614380355e-15 
   55       2.575481196770e-10       3.117144290288e-14      -4.933397788793e-13       8.272701735461e-15       4.320702751185e-11       4.920602488682e-12      -7.872885385624e-15 
   56       2.594867892344e-10       3.264673724523e-14      -5.347696826582e-13       8.437142211943e-15       4.149400367743e-11       4.745257687895e-12      -8.033707121346e-15 
   57       2.614565716366e-10       3.415871784679e-14      -5.776590606143e-13       8.597528418409e-15       3.987263356875e-11       4.579264660572e-12      -8.173305054140e-15 
   58       2.634591023587e-10       3.570698638633e-14      -6.220041184330e-13       8.753734289522e-15       3.833921831794e-11       4.422179179305e-12      -8.297941469519e-15 
   59       2.654938737438e-10       3.729108775629e-14      -6.678003147893e-13       8.905648294978e-15       3.688715336420e-11       4.273244997805e-12      -8.414964139295e-15 
   60       2.675580835396e-10       3.891050888214e-14      -7.150424125572e-13       9.053174006858e-15       3.550675946975e-11       4.131375790799e-12      -8.532854988990e-15 
   61       2.696484759687e-10       4.056468664655e-14      -7.637235870414e-13       9.196222234304e-15       3.418796898544e-11       3.995455157790e-12      -8.659136508767e-15 
   62       2.717676905020e-10       4.225303641127e-14      -8.138324009150e-13       9.334684081011e-15       3.292947153381e-11       3.865356181126e-12      -8.793431748086e-15 
   63       2.739190758462e-10       4.397492783140e-14      -8.653552380557e-13       9.468452819446e-15       3.173133065002e-11       3.741119712201e-12      -8.932925834206e-15 
   64       2.761047366641e-10       4.572967544133e-14      -9.182772074735e-13       9.597432083711e-15       3.059223284277e-11       3.622648691461e-12      -9.074351846668e-15 
   65       2.783254453326e-10       4.751653776305e-14      -9.725821646002e-13       9.721536169328e-15       2.950940920517e-11       3.509700180225e-12      -9.213971512525e-15 
   66       2.805805537006e-10       4.933471641436e-14      -1.028252732579e-12       9.840690333023e-15       2.847855702561e-11       3.401877392505e-12      -9.347555901572e-15 
   67       2.828679048469e-10       5.118335521712e-14      -1.085270323552e-12       9.954831092508e-15       2.749376139859e-11       3.298621726826e-12      -9.470366121577e-15 
   68       2.851852157723e-10       5.306151709034e-14      -1.143615058496e-12       1.006390160212e-14       2.654907394834e-11       3.199368276780e-12      -9.577926933706e-15 
   69       2.875347480610e-10       5.496811128567e-14      -1.203265460269e-12       1.016783602156e-14       2.564379568667e-11       3.104066764622e-12      -9.668572777812e-15 
   70       2.899194294448e-10       5.690194973821e-14      -1.264198736326e-12       1.026657250383e-14       2.477812869788e-11       3.012752333140e-12      -9.741385329299e-15 
   71       2.923414168912e-10       5.886176654333e-14      -1.326390893029e-12       1.036005800988e-14       2.395157837640e-11       2.925387687124e-12      -9.795447181844e-15 
   72       2.948020459813e-10       6.084621649679e-14      -1.389816754344e-12       1.044824848245e-14       2.316291741911e-11       2.841859306238e-12      -9.829842821919e-15 
   73       2.973017802874e-10       6.285387363483e-14      -1.454449980532e-12       1.053110901992e-14       2.241014981756e-11       2.761973657871e-12      -9.843659603307e-15 
   74       2.998401607511e-10       6.488322977421e-14      -1.520263086848e-12       1.060861405013e-14       2.169047485025e-11       2.685453410009e-12      -9.835988721624e-15 
   75       3.024157550604e-10       6.693269305233e-14      -1.587227462232e-12       1.068074750427e-14       2.100025107488e-11       2.611933644091e-12      -9.805926188839e-15 
   76       3.050270948843e-10       6.900065831534e-14      -1.655313261784e-12       1.074750045863e-14       2.033589965226e-11       2.541054324092e-12      -9.753003590515e-15 
   77       3.076757967870e-10       7.108573632842e-14      -1.724489020237e-12       1.080886317912e-14       1.969688408753e-11       2.472765542504e-12      -9.678568889088e-15 
   78       3.103639211014e-10       7.318656390488e-14      -1.794722001633e-12       1.086483193515e-14       1.908321096483e-11       2.407071315575e-12      -9.584660357075e-15 
   79       3.130930046862e-10       7.530173577934e-14      -1.865978335139e-12       1.091541152293e-14       1.849452234511e-11       2.343936481198e-12      -9.473608761408e-15 
   80       3.158640305613e-10       7.742980462113e-14      -1.938223031151e-12       1.096061538744e-14       1.793007902013e-11       2.283284885577e-12      -9.348047150989e-15 
   81       3.186773975419e-10       7.956928104761e-14      -2.011419997402e-12       1.100046574428e-14       1.738874376648e-11       2.224997569909e-12      -9.210920644257e-15 
   82       3.215328898732e-10       8.171863363762e-14      -2.085532055064e-12       1.103499370168e-14       1.686896459960e-11       2.168910957053e-12      -9.065496216750e-15 
   83       3.244296468646e-10       8.387628894482e-14      -2.160520954861e-12       1.106423938235e-14       1.636875802781e-11       2.114815038205e-12      -8.915372488667e-15 
   84       3.273667511067e-10       8.604062469467e-14      -2.236346695033e-12       1.108824829191e-14       1.588619078473e-11       2.062506036387e-12      -8.763998685546e-15 
   85       3.303451716756e-10       8.820994805021e-14      -2.312965310071e-12       1.110705946525e-14       1.542095346682e-11       2.011958400107e-12      -8.613118454354e-15 
   86       3.333660888948e-10       9.038251375099e-14      -2.390330743224e-12       1.112071556947e-14       1.497301828163e-11       1.963178130529e-12      -8.464084810593e-15 
   87       3.364302847203e-10       9.255653050944e-14      -2.468395516359e-12       1.112926654068e-14       1.454215551938e-11       1.916149955269e-12      -8.318329543301e-15 
   88       3.395381227720e-10       9.473016090971e-14      -2.547110734324e-12       1.113276964286e-14       1.412792518472e-11       1.870836430642e-12      -8.177364753428e-15 
   89       3.426895283644e-10       9.690152130646e-14      -2.626426089327e-12       1.113128952666e-14       1.372966862860e-11       1.827177043915e-12      -8.042784392205e-15 
   90       3.458839685373e-10       9.906868172373e-14      -2.706289865308e-12       1.112489828827e-14       1.334650018000e-11       1.785087315555e-12      -7.916265799513e-15 
   91       3.491204320865e-10       1.012296657537e-13      -2.786648942309e-12       1.111367552825e-14       1.297729877781e-11       1.744457901483e-12      -7.799571242257e-15 
   92       3.523974095955e-10       1.033824504556e-13      -2.867448800852e-12       1.109770841035e-14       1.262069960258e-11       1.705153695323e-12      -7.694549452737e-15 
   93       3.557134697777e-10       1.055250175447e-13      -2.948634441283e-12       1.107708747512e-14       1.227541766855e-11       1.667046011213e-12      -7.602632534803e-15 
   94       3.590691310370e-10       1.076555159857e-13      -3.030153290505e-12       1.105189323241e-14       1.194129244739e-11       1.630116619011e-12      -7.523236787158e-15 
   95       3.624652357793e-10       1.097721237801e-13      -3.111952742535e-12       1.102220765179e-14       1.161838561502e-11       1.594367768952e-12      -7.455123088920e-15 
   96       3.659023675548e-10       1.118729994500e-13      -3.193979299192e-12       1.098811822869e-14       1.130665933002e-11       1.559790067540e-12      -7.396874784950e-15 
   97       3.693808392747e-10       1.139562826405e-13      -3.276178587025e-12       1.094971798496e-14       1.100597242222e-11       1.526362033891e-12      -7.346892297212e-15 
   98       3.729006814273e-10       1.160200947226e-13      -3.358495374250e-12       1.090710546944e-14       1.071607658122e-11       1.494049656081e-12      -7.303387736145e-15 
   99       3.764616302943e-10       1.180625393966e-13      -3.440873587677e-12       1.086038475855e-14       1.043661254501e-11       1.462805947480e-12      -7.264379512028e-15 
  100       3.800631161675e-10       1.200817032944e-13      -3.523256329646e-12       1.080966545681e-14       1.016710628850e-11       1.432570503099e-12      -7.227686946349e-15 
  101       3.837042515648e-10       1.220756565825e-13      -3.605585894960e-12       1.075506269745e-14       9.906965212117e-12       1.403269055933e-12      -7.190924883170e-15 
  102       3.873838194468e-10       1.240424535652e-13      -3.687803787816e-12       1.069669714295e-14       9.655474330357e-12       1.374813033298e-12      -7.151498300499e-15 
  103       3.911002614329e-10       1.259801332871e-13      -3.769850738738e-12       1.063469498559e-14       9.411792460361e-12       1.347099113178e-12      -7.106596921652e-15 
  104       3.948520958382e-10       1.278867593008e-13      -3.851666661157e-12       1.056918323032e-14       9.175142800806e-12       1.320033763120e-12      -7.053832732868e-15 
  105       3.986392614769e-10       1.297605437896e-13      -3.933190477983e-12       1.050027481621e-14       8.945422197662e-12       1.293611587706e-12      -6.993262222049e-15 
  106       4.024619342640e-10       1.315997414138e-13      -4.014360303067e-12       1.042808147684e-14       8.722667458906e-12       1.267846786845e-12      -6.925628540752e-15 
  107       4.063201066301e-10       1.334026126642e-13      -4.095113515528e-12       1.035271822784e-14       8.506866658667e-12       1.242748951238e-12      -6.851744648142e-15 
