# dimensionless total lensed [l(l+1)/2pi] C_l's
# for l=2 to 5000, i.e. number of multipoles equal to 4999
#
# -> if you prefer output in CAMB/HealPix/LensPix units/order, set 'format' to 'camb' in input file
# -> if you don't want to see such a header, set 'headers' to 'no' in input file
# -> for CMB lensing (phi), these are C_l^phi-phi for the lensing potential.
#    Remember the conversion factors:
#    C_l^dd (deflection) = l(l+1) C_l^phi-phi
#    C_l^gg (shear/convergence) = 1/4 (l(l+1))^2 C_l^phi-phi
#
# 1:l     2:TT                     3:EE                     4:TE                     5:BB                     6:phiphi                 7:TPhi                   8:Ephi               
    2       2.907278552439e-10       7.951005303018e-15       5.707083401081e-13       4.890360174997e-15       8.440647414558e-09       4.775590385789e-10      -2.108171337652e-12 
    3       2.487238448004e-10       1.030411834787e-14       4.623997430533e-13       4.926142609847e-15       5.255148651934e-09       3.392640524354e-10      -1.687941048741e-12 
    4       2.293352968872e-10       9.861057094733e-15       3.953683488514e-13       4.285073488537e-15       3.660780629556e-09       2.569650243841e-10      -1.199503183557e-12 
    5       2.184863890657e-10       7.607835290999e-15       3.309233483427e-13       3.357564869053e-15       2.733191524146e-09       2.030392747398e-10      -7.633639935053e-13 
    6       2.113793770974e-10       5.004384046037e-15       2.672130061309e-13       2.437297867075e-15       2.133910081303e-09       1.652692624765e-10      -4.155625675983e-13 
    7       2.067396917293e-10       3.002871248528e-15       2.097076496806e-13       1.686114825400e-15       1.720231815944e-09       1.375104280668e-10      -1.651339458714e-13 
    8       2.037026392427e-10       1.851909174597e-15       1.620680756723e-13       1.158145518047e-15       1.421323841385e-09       1.164159953640e-10      -5.757354356400e-15 
    9       2.018259651591e-10       1.356114645404e-15       1.259692331914e-13       8.413258168199e-16       1.197335952774e-09       1.000188035155e-10       7.754902372069e-14 
   10       2.007799140708e-10       1.208637674669e-15       1.013353301024e-13       6.929679172661e-16       1.024180489294e-09       8.699973760896e-11       1.040294627566e-13 
   11       2.002526790148e-10       1.191613485042e-15       8.683569661274e-14       6.640202803772e-16       8.616018949719e-10       7.666612332522e-11       9.356006326597e-14 
   12       2.001677323458e-10       1.216534133265e-15       8.026488864259e-14       7.117072918370e-16       7.527839615423e-10       6.788429590760e-11       6.428552142280e-14 
   13       2.003822513590e-10       1.273592731922e-15       7.911330530961e-14       8.047363645261e-16       6.634649662926e-10       6.049574665527e-11       2.960862259101e-14 
   14       2.008195950158e-10       1.372294027337e-15       8.105430175426e-14       9.225363030909e-16       5.891497339538e-10       5.429478676870e-11      -1.010631769921e-15 
   15       2.014500520474e-10       1.511547126713e-15       8.418244290267e-14       1.053711575345e-15       5.266046335794e-10       4.905446021052e-11      -2.259631506071e-14 
   16       2.021909552710e-10       1.680600362703e-15       8.730128620111e-14       1.192648690862e-15       4.734318953901e-10       4.454216142861e-11      -3.392785538700e-14 
   17       2.030945331191e-10       1.870362894691e-15       8.975431828530e-14       1.336531772958e-15       4.278201826062e-10       4.052182275726e-11      -3.649337398562e-14 
   18       2.040629609843e-10       2.078479830135e-15       9.127047179668e-14       1.485010475603e-15       3.882319348754e-10       3.702545792617e-11      -3.279726595755e-14 
   19       2.051137032664e-10       2.308944056310e-15       9.201567537090e-14       1.637863675963e-15       3.540414634764e-10       3.400643073417e-11      -2.545191338443e-14 
   20       2.062169507575e-10       2.567129342449e-15       9.232223735383e-14       1.794850775479e-15       3.239297211827e-10       3.129170253344e-11      -1.763410904103e-14 
   21       2.073839685073e-10       2.854810811064e-15       9.244088576338e-14       1.955869572908e-15       2.974235487454e-10       2.887217931653e-11      -1.105740974385e-14 
   22       2.085831345866e-10       3.171864486269e-15       9.257323508907e-14       2.120934832419e-15       2.738888438035e-10       2.675039218634e-11      -6.888570776054e-15 
   23       2.098333164916e-10       3.517058684818e-15       9.270589067559e-14       2.289946457417e-15       2.530016042634e-10       2.488725254252e-11      -5.189813022405e-15 
   24       2.111274272569e-10       3.888557183080e-15       9.270530064026e-14       2.462795541563e-15       2.342783909101e-10       2.320405012344e-11      -5.492622560146e-15 
   25       2.124620414978e-10       4.286395601998e-15       9.236235071764e-14       2.639286156615e-15       2.174989620641e-10       2.166133562533e-11      -7.192614753292e-15 
   26       2.138087071041e-10       4.711063124376e-15       9.140390824664e-14       2.819201595609e-15       2.023598380477e-10       2.022406499492e-11      -9.503400230771e-15 
   27       2.151783599320e-10       5.162939302993e-15       8.957915248205e-14       3.002280414970e-15       1.886797512542e-10       1.891008235693e-11      -1.169307759594e-14 
   28       2.165747972880e-10       5.642385524888e-15       8.664048188320e-14       3.188259287637e-15       1.762231528845e-10       1.774108283854e-11      -1.307394519167e-14 
   29       2.180115881313e-10       6.150253919667e-15       8.246557364406e-14       3.376914781006e-15       1.649261764158e-10       1.670457286188e-11      -1.356696968473e-14 
   30       2.194805656704e-10       6.687571524571e-15       7.696915308986e-14       3.568049857696e-15       1.546669785380e-10       1.576223872434e-11      -1.332584419481e-14 
   31       2.209540092416e-10       7.255414119798e-15       7.008927813798e-14       3.761472712337e-15       1.452357527768e-10       1.486837335955e-11      -1.256174233986e-14 
   32       2.224433535282e-10       7.854921119075e-15       6.186781295574e-14       3.956940138970e-15       1.365838905757e-10       1.402499470437e-11      -1.146814803132e-14 
   33       2.239575702340e-10       8.487291098146e-15       5.240393292659e-14       4.154193325755e-15       1.286505481269e-10       1.324601108355e-11      -1.027659345298e-14 
   34       2.254915081334e-10       9.153663056434e-15       4.180180747441e-14       4.352977644301e-15       1.213250348872e-10       1.253983108480e-11      -9.233194547157e-15 
   35       2.270467182550e-10       9.854707357669e-15       3.005134122693e-14       4.553061155697e-15       1.145698324735e-10       1.189989300779e-11      -8.433698016647e-15 
   36       2.286145154206e-10       1.059088185566e-14       1.710611723880e-14       4.754222961025e-15       1.083305886603e-10       1.130977563364e-11      -7.932500394690e-15 
   37       2.301789799341e-10       1.136258743252e-14       2.917127777505e-15       4.956238239608e-15       1.025259369019e-10       1.075090918525e-11      -7.761794232915e-15 
   38       2.317523966862e-10       1.217036185170e-14      -1.255714370911e-14       5.158842401435e-15       9.714085964597e-11       1.022281435373e-11      -7.848659506745e-15 
   39       2.333493835042e-10       1.301474060155e-14      -2.935823336005e-14       5.361754714560e-15       9.215829340370e-11       9.728953659438e-12      -8.068086539183e-15 
   40       2.349761808791e-10       1.389620008793e-14      -4.753085720656e-14       5.564687225080e-15       8.753073459617e-11       9.271086449563e-12      -8.262384771691e-15 
   41       2.366322410928e-10       1.481519502641e-14      -6.712190914826e-14       5.767351997806e-15       8.319678933074e-11       8.849058284360e-12      -8.282940720608e-15 
   42       2.383179191605e-10       1.577229445805e-14      -8.817619480272e-14       5.969486942117e-15       7.914368552174e-11       8.460513273717e-12      -8.137046953524e-15 
   43       2.400276741858e-10       1.676808357008e-14      -1.107399164659e-13       6.170837504748e-15       7.536064119301e-11       8.100789378496e-12      -7.885225684458e-15 
   44       2.417469709437e-10       1.780312532329e-14      -1.348621786603e-13       6.371149632901e-15       7.182010498927e-11       7.762766987910e-12      -7.602268905920e-15 
   45       2.434595553322e-10       1.887789159320e-14      -1.605834720545e-13       6.570165291229e-15       6.848759433844e-11       7.438969199748e-12      -7.361838093074e-15 
   46       2.451737184997e-10       1.999253445044e-14      -1.878963983439e-13       6.767607402191e-15       6.535786288364e-11       7.129034899839e-12      -7.182754887369e-15 
   47       2.469025535477e-10       2.114704476588e-14      -2.167736521606e-13       6.963190412398e-15       6.242727505357e-11       6.834174152808e-12      -7.068110231496e-15 
   48       2.486562690300e-10       2.234130931266e-14      -2.471783774739e-13       7.156624143348e-15       5.968289831536e-11       6.555035033854e-12      -7.020049319031e-15 
   49       2.504418704925e-10       2.357510583864e-14      -2.790637528477e-13       7.347613538200e-15       5.710181178876e-11       6.291655230046e-12      -7.039691764166e-15 
   50       2.522631759432e-10       2.484815769432e-14      -3.123846367961e-13       7.535871807390e-15       5.465800946351e-11       6.043606706165e-12      -7.125195560374e-15 
   51       2.541216060363e-10       2.616032663002e-14      -3.471371925709e-13       7.721164659577e-15       5.234692289590e-11       5.810588280337e-12      -7.265514629426e-15 
   52       2.560150578979e-10       2.751146381364e-14      -3.833293021660e-13       7.903277638958e-15       5.016635981829e-11       5.591910236224e-12      -7.444808838102e-15 
   53       2.579372943802e-10       2.890135277438e-14      -4.209695954395e-13       8.082004144111e-15       4.810916524195e-11       5.386276936045e-12      -7.643988898536e-15 
   54       2.598776413165e-10       3.032970727772e-14      -4.600676029046e-13       8.257145805294e-15       4.616288746434e-11       5.191747507257e-12      -7.840549186839e-15 
   55       2.618253143745e-10       3.179619656917e-14      -5.006329175032e-13       8.428514786940e-15       4.431357551982e-11       5.006269510442e-12      -8.014087835693e-15 
   56       2.637843518974e-10       3.330053331741e-14      -5.426720860488e-13       8.595940500592e-15       4.255904139122e-11       4.829525255022e-12      -8.164855854616e-15 
   57       2.657618614193e-10       3.484240379597e-14      -5.861912131761e-13       8.759265220484e-15       4.089830740193e-11       4.661475287640e-12      -8.299523178068e-15 
   58       2.677635953748e-10       3.642144139301e-14      -6.311969963951e-13       8.918342746920e-15       3.932759416556e-11       4.501808976751e-12      -8.425948333013e-15 
   59       2.697938287276e-10       3.803722555260e-14      -6.776968402704e-13       9.073038858584e-15       3.784014755860e-11       4.349927523243e-12      -8.553232839638e-15 
   60       2.718552365999e-10       3.968928071601e-14      -7.256989706011e-13       9.223231764856e-15       3.642606569306e-11       4.204926971067e-12      -8.691775612083e-15 
   61       2.739495370387e-10       4.137706495537e-14      -7.752078791579e-13       9.368810091851e-15       3.507504816062e-11       4.065867162264e-12      -8.850197676094e-15 
   62       2.760798647525e-10       4.309993528817e-14      -8.262092047631e-13       9.509665289051e-15       3.378575631737e-11       3.932687582618e-12      -9.025186620098e-15 
   63       2.782487154601e-10       4.485717266311e-14      -8.786816457762e-13       9.645698313138e-15       3.255825653701e-11       3.805467874993e-12      -9.209458783158e-15 
   64       2.804571316179e-10       4.664799022253e-14      -9.326012967739e-13       9.776822310510e-15       3.139120462175e-11       3.684152275172e-12      -9.394643776279e-15 
   65       2.827046043258e-10       4.847153191665e-14      -9.879416145713e-13       9.902962991332e-15       3.028176549647e-11       3.568541695276e-12      -9.571239580658e-15 
   66       2.849889752333e-10       5.032687111787e-14      -1.044673384244e-12       1.002405900360e-14       2.922553290274e-11       3.458285807195e-12      -9.728567645926e-15 
   67       2.873063384451e-10       5.221300923499e-14      -1.102764685151e-12       1.014006230720e-14       2.821644909305e-11       3.352875126011e-12      -9.854727988392e-15 
   68       2.896528164774e-10       5.412888357927e-14      -1.162183677135e-12       1.025092958304e-14       2.724842218149e-11       3.251783713882e-12      -9.939443158663e-15 
   69       2.920305252646e-10       5.607339591090e-14      -1.222907690657e-12       1.035659360288e-14       2.632073825659e-11       3.154948564968e-12      -9.983359681962e-15 
   70       2.944426471528e-10       5.804538721395e-14      -1.284915925986e-12       1.045698670363e-14       2.543360667875e-11       3.062373581140e-12      -9.990559330568e-15 
   71       2.968916145280e-10       6.004362782789e-14      -1.348186833455e-12       1.055204938113e-14       2.458652322721e-11       2.973983554546e-12      -9.965865476110e-15 
   72       2.993790596512e-10       6.206681629848e-14      -1.412698151611e-12       1.064173043492e-14       2.377823321254e-11       2.889620103227e-12      -9.914872071933e-15 
   73       3.019057644947e-10       6.411357822859e-14      -1.478426945361e-12       1.072598711304e-14       2.300669458906e-11       2.809037606724e-12      -9.843972635474e-15 
   74       3.044716105777e-10       6.618246512916e-14      -1.545349644124e-12       1.080478525678e-14       2.226904106730e-11       2.731899141688e-12      -9.760389230634e-15 
   75       3.070755288015e-10       6.827195327003e-14      -1.613442079980e-12       1.087809944550e-14       2.156154522641e-11       2.657772417496e-12      -9.672201450149e-15 
   76       3.097163640136e-10       7.038049086114e-14      -1.682678433676e-12       1.094591283528e-14       2.088054354271e-11       2.586236348098e-12      -9.586624617682e-15 
   77       3.123957616012e-10       7.250665206920e-14      -1.753027766421e-12       1.100821632113e-14       2.022548775897e-11       2.517232188199e-12      -9.504417844027e-15 
   78       3.151157185890e-10       7.464900912948e-14      -1.824456922023e-12       1.106500948434e-14       1.959638551495e-11       2.450769341769e-12      -9.424504170488e-15 
   79       3.178776847099e-10       7.680608635158e-14      -1.896931578417e-12       1.111630102127e-14       1.899287090959e-11       2.386818639629e-12      -9.345624079090e-15 
   80       3.206825309978e-10       7.897635996133e-14      -1.970416263420e-12       1.116210888181e-14       1.841418733831e-11       2.325310543741e-12      -9.266328573787e-15 
   81       3.235305183808e-10       8.115825794274e-14      -2.044874370492e-12       1.120246040793e-14       1.785917033034e-11       2.266133351512e-12      -9.184972261662e-15 
   82       3.264212662740e-10       8.335015987995e-14      -2.120268174479e-12       1.123739247212e-14       1.732623038598e-11       2.209131400087e-12      -9.099706434139e-15 
   83       3.293537211725e-10       8.555039679912e-14      -2.196558847376e-12       1.126695161596e-14       1.681333581400e-11       2.154103270644e-12      -9.008472148177e-15 
   84       3.323267998999e-10       8.775725810420e-14      -2.273705663589e-12       1.129118921619e-14       1.631850642894e-11       2.100853265427e-12      -8.909589726733e-15 
   85       3.353415106747e-10       8.996901405146e-14      -2.351663429846e-12       1.131014575902e-14       1.584142627542e-11       2.049359577424e-12      -8.803654701369e-15 
   86       3.383991277237e-10       9.218389672826e-14      -2.430384656123e-12       1.132386420064e-14       1.538206803555e-11       1.999630836951e-12      -8.691944952868e-15 
   87       3.415005281172e-10       9.440009325224e-14      -2.509820330352e-12       1.133239476196e-14       1.494019748936e-11       1.951654430579e-12      -8.575855296762e-15 
   88       3.446461717003e-10       9.661574573250e-14      -2.589919920552e-12       1.133579498352e-14       1.451536493806e-11       1.905395600779e-12      -8.456900588393e-15 
   89       3.478360810255e-10       9.882895123072e-14      -2.670631376962e-12       1.133412978041e-14       1.410689662718e-11       1.860796545552e-12      -8.336718827972e-15 
   90       3.510698212834e-10       1.010377617223e-13      -2.751901134172e-12       1.132747149722e-14       1.371388616979e-11       1.817775518073e-12      -8.217074265632e-15 
   91       3.543464802350e-10       1.032401840577e-13      -2.833674113257e-12       1.131589996297e-14       1.333518596971e-11       1.776225926320e-12      -8.099860506486e-15 
   92       3.576646481432e-10       1.054341799232e-13      -2.915893723910e-12       1.129950254602e-14       1.296939864467e-11       1.736015432716e-12      -7.987103615688e-15 
   93       3.610229762143e-10       1.076177124676e-13      -2.998503011960e-12       1.127837026691e-14       1.261520848941e-11       1.697018349247e-12      -7.880553161541e-15 
   94       3.644219915876e-10       1.097888942869e-13      -3.081448294740e-12       1.125258534875e-14       1.227245151987e-11       1.659220351807e-12      -7.780378242332e-15 
   95       3.678625194860e-10       1.119458617281e-13      -3.164676078965e-12       1.122223188724e-14       1.194119125489e-11       1.622627923495e-12      -7.686280170237e-15 
   96       3.713451170647e-10       1.140867308010e-13      -3.248131981676e-12       1.118739962678e-14       1.162138915921e-11       1.587236025027e-12      -7.597884541733e-15 
   97       3.748700612830e-10       1.162095977798e-13      -3.331760748098e-12       1.114818396124e-14       1.131290073431e-11       1.553027651412e-12      -7.514738686355e-15 
   98       3.784373367782e-10       1.183125398046e-13      -3.415506269490e-12       1.110468593482e-14       1.101547160934e-11       1.519973388628e-12      -7.436309115445e-15 
   99       3.820466237375e-10       1.203936154838e-13      -3.499311601006e-12       1.105701224287e-14       1.072873363190e-11       1.488030970306e-12      -7.361978970900e-15 
  100       3.856972857712e-10       1.224508654949e-13      -3.583118979542e-12       1.100527523267e-14       1.045220095898e-11       1.457144834403e-12      -7.291045473926e-15 
  101       3.893883577855e-10       1.244823131871e-13      -3.666869841600e-12       1.094959290427e-14       1.018526614781e-11       1.427245679885e-12      -7.222717373786e-15 
  102       3.931185338552e-10       1.264859651823e-13      -3.750504841134e-12       1.089008891132e-14       9.927196246673e-12       1.398250023400e-12      -7.156112396552e-15 
  103       3.968861550963e-10       1.284598119774e-13      -3.833963867411e-12       1.082689256186e-14       9.677128885861e-12       1.370059755962e-12      -7.090254693858e-15 
  104       4.006896505625e-10       1.304018704120e-13      -3.917185951700e-12       1.076013394994e-14       9.434267740063e-12       1.342584786002e-12      -7.024272720077e-15 
  105       4.045289538831e-10       1.323103163101e-13      -4.000108934534e-12       1.068992859965e-14       9.198507406580e-12       1.315815406924e-12      -6.958028801523e-15 
  106       4.084042562744e-10       1.341833709617e-13      -4.082669786574e-12       1.061639073859e-14       8.969886044290e-12       1.289758924381e-12      -6.891570252525e-15 
  107       4.123155635425e-10       1.360192619056e-13      -4.164804732199e-12       1.053963792979e-14       8.748391842412e-12       1.264417255530e-12      -6.824936196921e-15 
