# dimensionless total lensed [l(l+1)/2pi] C_l's
# for l=2 to 5000, i.e. number of multipoles equal to 4999
#
# -> if you prefer output in CAMB/HealPix/LensPix units/order, set 'format' to 'camb' in input file
# -> if you don't want to see such a header, set 'headers' to 'no' in input file
# -> for CMB lensing (phi), these are C_l^phi-phi for the lensing potential.
#    Remember the conversion factors:
#    C_l^dd (deflection) = l(l+1) C_l^phi-phi
#    C_l^gg (shear/convergence) = 1/4 (l(l+1))^2 C_l^phi-phi
#
# 1:l     2:TT                     3:EE                     4:TE                     5:BB                     6:phiphi                 7:TPhi                   8:Ephi               
    2       2.857113498667e-10       7.737450591688e-15       5.610482443825e-13       4.752351735558e-15       8.434882158386e-09       4.650105824938e-10      -2.059106950204e-12 
    3       2.437094969839e-10       1.003106455355e-14       4.521820400089e-13       4.790965549172e-15       5.183156251339e-09       3.304253281633e-10      -1.650908326660e-12 
    4       2.247965189984e-10       9.612288998037e-15       3.866734468856e-13       4.171229897068e-15       3.609231429266e-09       2.505692458922e-10      -1.174319654656e-12 
    5       2.142295902234e-10       7.427308715480e-15       3.236697166863e-13       3.271620059976e-15       2.696722216251e-09       1.980982868961e-10      -7.483515752344e-13 
    6       2.073002327421e-10       4.893546323830e-15       2.614216181177e-13       2.377731718424e-15       2.107869990902e-09       1.612770129194e-10      -4.084515715554e-13 
    7       2.027597158653e-10       2.940783554204e-15       2.052903460662e-13       1.647212380483e-15       1.701189418059e-09       1.342367504270e-10      -1.633765743722e-13 
    8       1.998333314491e-10       1.814912772471e-15       1.587589668031e-13       1.133382231228e-15       1.405999001610e-09       1.136940308320e-10      -7.083189775023e-15 
    9       1.980217652494e-10       1.328777042095e-15       1.234552442354e-13       8.247634363596e-16       1.183641487973e-09       9.767470060732e-11       7.491109839980e-14 
   10       1.969698679771e-10       1.184059609703e-15       9.938147076097e-14       6.803355631125e-16       1.011460765983e-09       8.493099706460e-11       1.012922729309e-13 
   11       1.964895420195e-10       1.168044107775e-15       8.522250875041e-14       6.523127608625e-16       8.496417488886e-10       7.493754316790e-11       9.150644847468e-14 
   12       1.964206440001e-10       1.193270282067e-15       7.880649381752e-14       6.993317621233e-16       7.423859219867e-10       6.628182330477e-11       6.295213917689e-14 
   13       1.966482769323e-10       1.250020653254e-15       7.767143128181e-14       7.905214350225e-16       6.543436843941e-10       5.921811789687e-11       2.934730603439e-14 
   14       1.970729566845e-10       1.347116500296e-15       7.956740427324e-14       9.063072071860e-16       5.810933372633e-10       5.306329385585e-11      -7.091645916225e-16 
   15       1.976930177730e-10       1.484153539892e-15       8.272267755414e-14       1.035094346221e-15       5.194379195141e-10       4.789985373061e-11      -2.197705615375e-14 
   16       1.984628675933e-10       1.650625955842e-15       8.583883430395e-14       1.171450009297e-15       4.670177827718e-10       4.349103262079e-11      -3.322893561791e-14 
   17       1.993274272468e-10       1.837246042496e-15       8.821224404894e-14       1.313045548529e-15       4.220511662349e-10       3.966366679104e-11      -3.568944701735e-14 
   18       2.002625423064e-10       2.042063883862e-15       8.977645372346e-14       1.458994451413e-15       3.830221440484e-10       3.627072820436e-11      -3.210467397453e-14 
   19       2.012960808015e-10       2.268921582137e-15       9.064376208207e-14       1.609068887167e-15       3.493144223104e-10       3.328748206821e-11      -2.504758126919e-14 
   20       2.023701677468e-10       2.522812972141e-15       9.098898674764e-14       1.763290239346e-15       3.196258696883e-10       3.065793648133e-11      -1.747581651510e-14 
   21       2.035056810363e-10       2.805562848789e-15       9.108533316738e-14       1.921524045616e-15       2.934903036815e-10       2.833871886270e-11      -1.100177312083e-14 
   22       2.046901630779e-10       3.117253049857e-15       9.121736859228e-14       2.083657749552e-15       2.702835495412e-10       2.625254089739e-11      -6.759000240782e-15 
   23       2.059232108024e-10       3.456688665223e-15       9.137839756847e-14       2.249596292325e-15       2.496866432156e-10       2.437096692680e-11      -4.946835428095e-15 
   24       2.071727515107e-10       3.822014517857e-15       9.141856218507e-14       2.419282812115e-15       2.312232266197e-10       2.266234913329e-11      -5.268758401385e-15 
   25       2.084615961825e-10       4.213227449491e-15       9.113285678563e-14       2.592556444798e-15       2.146762809606e-10       2.112986000560e-11      -7.039053340747e-15 
   26       2.097973700328e-10       4.630777488786e-15       9.025254043800e-14       2.769227664128e-15       1.997465626960e-10       1.976822023420e-11      -9.326006760490e-15 
   27       2.111652181703e-10       5.075047994942e-15       8.849641167082e-14       2.949033321112e-15       1.862550087700e-10       1.854413236645e-11      -1.144258283203e-14 
   28       2.125278748624e-10       5.546420782930e-15       8.558500358333e-14       3.131698517423e-15       1.739689890548e-10       1.740945390971e-11      -1.279765563630e-14 
   29       2.139030497423e-10       6.045758025793e-15       8.143136954145e-14       3.316997540627e-15       1.628257986658e-10       1.636140248630e-11      -1.330729965252e-14 
   30       2.153051975985e-10       6.574097878387e-15       7.601784646137e-14       3.504732611803e-15       1.527058325064e-10       1.540364728231e-11      -1.308148981928e-14 
   31       2.167292135147e-10       7.132513015776e-15       6.934265810310e-14       3.694711213588e-15       1.434027132685e-10       1.453129057646e-11      -1.229218017080e-14 
   32       2.181824432265e-10       7.722054478375e-15       6.141038907663e-14       3.886695636590e-15       1.348684402942e-10       1.373624396766e-11      -1.116017546314e-14 
   33       2.196596615351e-10       8.343789251173e-15       5.224016751742e-14       4.080434945204e-15       1.270426998976e-10       1.300207576688e-11      -9.973037513739e-15 
   34       2.211432470910e-10       8.998749259520e-15       4.186314668647e-14       4.275675625187e-15       1.198160162368e-10       1.230874749063e-11      -9.023312634747e-15 
   35       2.226419991726e-10       9.687700312050e-15       3.030087896323e-14       4.472153679428e-15       1.131514344589e-10       1.165742393592e-11      -8.362751837856e-15 
   36       2.241627424021e-10       1.041128575323e-14       1.758067827039e-14       4.669599302189e-15       1.069955192756e-10       1.105353609310e-11      -7.962636831175e-15 
   37       2.257033605120e-10       1.117008305903e-14       3.721690614995e-15       4.867748789782e-15       1.012681869102e-10       1.049957766512e-11      -7.778949783413e-15 
   38       2.272693610515e-10       1.196460808403e-14      -1.133455004546e-14       5.066379404588e-15       9.595466312676e-11       9.993817584786e-12      -7.758850076798e-15 
   39       2.288605820546e-10       1.279530305939e-14      -2.767848801500e-14       5.265286425685e-15       9.103810940042e-11       9.530628819081e-12      -7.834078769508e-15 
   40       2.304652822251e-10       1.366252860907e-14      -4.541536939225e-14       5.464274496006e-15       8.647164985001e-11       9.100417486025e-12      -7.917595670947e-15 
   41       2.320675257079e-10       1.456661855524e-14      -6.464559276100e-14       5.663138299972e-15       8.219470805602e-11       8.692540131557e-12      -7.924657334587e-15 
   42       2.336749987593e-10       1.550807863112e-14      -8.539542208080e-14       5.861595770585e-15       7.819471267617e-11       8.305977591508e-12      -7.847347619432e-15 
   43       2.352983081027e-10       1.648744346626e-14      -1.076655712629e-13       6.059334021782e-15       7.446106870046e-11       7.941589790724e-12      -7.702177880814e-15 
   44       2.369426694735e-10       1.750522083924e-14      -1.314496876894e-13       6.256026493991e-15       7.096664097997e-11       7.599074243925e-12      -7.510101546810e-15 
   45       2.386095333150e-10       1.856184405776e-14      -1.567361564165e-13       6.451348718563e-15       6.767745152678e-11       7.277341469057e-12      -7.294932688978e-15 
   46       2.403033768715e-10       1.965751500609e-14      -1.835149307651e-13       6.645033209467e-15       6.458833173832e-11       6.976014233571e-12      -7.077395045256e-15 
   47       2.420259786810e-10       2.079231209314e-14      -2.117721845386e-13       6.836829554011e-15       6.169568875682e-11       6.694203879809e-12      -6.879757966167e-15 
   48       2.437739734551e-10       2.196622878023e-14      -2.414881557294e-13       7.026489347289e-15       5.898675182185e-11       6.430000224375e-12      -6.727697931150e-15 
   49       2.455384116390e-10       2.317916968521e-14      -2.726369405786e-13       7.213766308912e-15       5.643888972958e-11       6.180397530502e-12      -6.650464579970e-15 
   50       2.473092618263e-10       2.443097336968e-14      -3.051950075942e-13       7.398416938409e-15       5.402642812367e-11       5.942172434222e-12      -6.672649113665e-15 
   51       2.490913805955e-10       2.572149703078e-14      -3.391699418698e-13       7.580202420380e-15       5.174486639504e-11       5.714970403351e-12      -6.786470192841e-15 
   52       2.508921161783e-10       2.705054806382e-14      -3.745791471064e-13       7.758887438244e-15       4.959205437237e-11       5.498929101606e-12      -6.972252355215e-15 
   53       2.527165415692e-10       2.841785681093e-14      -4.114420071450e-13       7.934239819478e-15       4.756094522315e-11       5.293771121401e-12      -7.205942443563e-15 
   54       2.545672466910e-10       2.982307392085e-14      -4.497800903778e-13       8.106030677686e-15       4.563926584625e-11       5.098774754038e-12      -7.458880454519e-15 
   55       2.564453432762e-10       3.126580133357e-14      -4.896117312622e-13       8.274045599903e-15       4.381326232490e-11       4.913053789845e-12      -7.703847321788e-15 
   56       2.583542479726e-10       3.274570029623e-14      -5.309337302897e-13       8.438121137478e-15       4.208078097257e-11       4.736545277809e-12      -7.935492585510e-15 
   57       2.602964750041e-10       3.426240555619e-14      -5.737354659386e-13       8.598117629174e-15       4.044085956647e-11       4.569215948337e-12      -8.154580018179e-15 
   58       2.622723487030e-10       3.581549278608e-14      -6.180041049235e-13       8.753909510126e-15       3.888976987794e-11       4.410757866525e-12      -8.362170371435e-15 
   59       2.642798429248e-10       3.740447725369e-14      -6.637245875327e-13       8.905385884258e-15       3.742084683360e-11       4.260571242487e-12      -8.559636780746e-15 
   60       2.663144204618e-10       3.902881249184e-14      -7.108796129655e-13       9.052451096695e-15       3.602431767654e-11       4.117747241666e-12      -8.748680170091e-15 
   61       2.683713153490e-10       4.068790586432e-14      -7.594517971291e-13       9.195016946110e-15       3.469001619909e-11       3.981324659013e-12      -8.930646081030e-15 
   62       2.704533417115e-10       4.238117235581e-14      -8.094307451831e-13       9.332975984161e-15       3.341662385886e-11       3.851166154016e-12      -9.104261117586e-15 
   63       2.725645607110e-10       4.410799055029e-14      -8.608075477088e-13       9.466223211311e-15       3.220420921378e-11       3.727249087727e-12      -9.267413445747e-15 
   64       2.747079108936e-10       4.586768602212e-14      -9.135728015267e-13       9.594664209098e-15       3.105144816085e-11       3.609400682522e-12      -9.417799908513e-15 
   65       2.768851251150e-10       4.765953054202e-14      -9.677166639641e-13       9.718215447290e-15       2.995554463845e-11       3.497289521917e-12      -9.552919265306e-15 
   66       2.790966474655e-10       4.948274128302e-14      -1.023228907123e-12       9.836804591042e-15       2.891215132864e-11       3.390417050379e-12      -9.670065431377e-15 
   67       2.813415501956e-10       5.133648002646e-14      -1.080098972148e-12       9.950370808048e-15       2.791529035948e-11       3.288109073141e-12      -9.766320717214e-15 
   68       2.836186418087e-10       5.321982427085e-14      -1.138313855205e-12       1.005885970086e-14       2.695895006161e-11       3.189695849135e-12      -9.839093973922e-15 
   69       2.859302377644e-10       5.513167553542e-14      -1.197851146703e-12       1.016220622490e-14       2.604242819888e-11       3.095113745028e-12      -9.887876763731e-15 
   70       2.882790080902e-10       5.707083096469e-14      -1.258684672646e-12       1.026034884507e-14       2.516593393765e-11       3.004410782168e-12      -9.912832525818e-15 
   71       2.906668021496e-10       5.903600829608e-14      -1.320786536957e-12       1.035323477097e-14       2.432897180885e-11       2.917565219166e-12      -9.914290202441e-15 
   72       2.930945960315e-10       6.102584434737e-14      -1.384127120291e-12       1.044082012661e-14       2.353030527611e-11       2.834481875068e-12      -9.892751414555e-15 
   73       2.955624399401e-10       6.303889350400e-14      -1.448675078852e-12       1.052307012008e-14       2.276792030392e-11       2.754988452515e-12      -9.848897637439e-15 
   74       2.980694055850e-10       6.507362620654e-14      -1.514397343199e-12       1.059995921323e-14       2.203898892582e-11       2.678831860913e-12      -9.783597376311e-15 
   75       3.006135335709e-10       6.712842743801e-14      -1.581259117064e-12       1.067147129140e-14       2.133983281252e-11       2.605674539598e-12      -9.697913341959e-15 
   76       3.031928734759e-10       6.920166989356e-14      -1.649225257473e-12       1.073759740109e-14       2.066683649097e-11       2.535181028592e-12      -9.593375836266e-15 
   77       3.058089393461e-10       7.129195223720e-14      -1.718264708281e-12       1.079832811169e-14       2.001945979173e-11       2.467304034037e-12      -9.472844601776e-15 
   78       3.084637916727e-10       7.339790174610e-14      -1.788346876715e-12       1.085366006273e-14       1.939771109879e-11       2.402044090470e-12      -9.339817901387e-15 
   79       3.111589708896e-10       7.551810350116e-14      -1.859440350483e-12       1.090359839014e-14       1.880122974819e-11       2.339362144340e-12      -9.198192681014e-15 
   80       3.138954671693e-10       7.765110040581e-14      -1.931512924914e-12       1.094815684608e-14       1.822926906949e-11       2.279177727772e-12      -9.052277204065e-15 
   81       3.166736902201e-10       7.979539320487e-14      -2.004531630093e-12       1.098735791877e-14       1.768067942735e-11       2.221367132337e-12      -8.906803685908e-15 
   82       3.194934390816e-10       8.194944050328e-14      -2.078462758003e-12       1.102123295232e-14       1.715389126299e-11       2.165761582811e-12      -8.766940928344e-15 
   83       3.223538719213e-10       8.411165878495e-14      -2.153271889658e-12       1.104982226651e-14       1.664689813571e-11       2.112145410949e-12      -8.638306954081e-15 
   84       3.252541032958e-10       8.628041648067e-14      -2.228922417240e-12       1.107317174406e-14       1.615774445330e-11       2.060308470322e-12      -8.525635980259e-15 
   85       3.281951758578e-10       8.845401500063e-14      -2.305370769560e-12       1.109132167966e-14       1.568611871115e-11       2.010217364959e-12      -8.428497753726e-15 
   86       3.311783616593e-10       9.063070457736e-14      -2.382570441155e-12       1.110431629343e-14       1.523199451396e-11       1.961869390456e-12      -8.344888437424e-15 
   87       3.342045443805e-10       9.280868985702e-14      -2.460473428732e-12       1.111220715872e-14       1.479514101923e-11       1.915239915614e-12      -8.272503341363e-15 
   88       3.372741996719e-10       9.498612981819e-14      -2.539030233010e-12       1.111505326254e-14       1.437511446095e-11       1.870281467813e-12      -8.208726940948e-15 
   89       3.403873754963e-10       9.716113769069e-14      -2.618189860567e-12       1.111292106601e-14       1.397124967330e-11       1.826922818394e-12      -8.150622895295e-15 
   90       3.435436724708e-10       9.933178087432e-14      -2.697899825680e-12       1.110588456481e-14       1.358265161430e-11       1.785068068044e-12      -8.094924065556e-15 
   91       3.467422242085e-10       1.014960808577e-13      -2.778106152168e-12       1.109402534967e-14       1.320818688955e-11       1.744595732171e-12      -8.038022533240e-15 
   92       3.499816776607e-10       1.036520131370e-13      -2.858753375240e-12       1.107743266673e-14       1.284647527585e-11       1.705357826285e-12      -7.975959618530e-15 
   93       3.532607344520e-10       1.057975566244e-13      -2.939785600248e-12       1.105619898640e-14       1.249621726946e-11       1.667216537764e-12      -7.905351167155e-15 
   94       3.565799107175e-10       1.079308505501e-13      -3.021149857101e-12       1.103040581593e-14       1.215725149413e-11       1.630162536849e-12      -7.826344280752e-15 
   95       3.599400068309e-10       1.100500611181e-13      -3.102793256116e-12       1.100013585487e-14       1.182964139542e-11       1.594212851384e-12      -7.740088893012e-15 
   96       3.633415581979e-10       1.121533347090e-13      -3.184661992182e-12       1.096547729540e-14       1.151334957446e-11       1.559374472581e-12      -7.647844942426e-15 
   97       3.667848232983e-10       1.142387984786e-13      -3.266701361118e-12       1.092652382116e-14       1.120823392417e-11       1.525643956341e-12      -7.550985228885e-15 
   98       3.702697717293e-10       1.163045609558e-13      -3.348855776020e-12       1.088337460599e-14       1.091404376551e-11       1.493007024581e-12      -7.450998270276e-15 
   99       3.737960722475e-10       1.183487126406e-13      -3.431068783613e-12       1.083613431280e-14       1.063041598368e-11       1.461438166549e-12      -7.349491159087e-15 
  100       3.773630808117e-10       1.203693266023e-13      -3.513283080607e-12       1.078491309227e-14       1.035687116442e-11       1.430900240153e-12      -7.248192418997e-15 
  101       3.809698286258e-10       1.223644590778e-13      -3.595440530043e-12       1.072982658172e-14       1.009280973018e-11       1.401344073283e-12      -7.148954861487e-15 
  102       3.846150101811e-10       1.243321500696e-13      -3.677482177647e-12       1.067099590386e-14       9.837508076388e-12       1.372708065131e-12      -7.053758442427e-15 
  103       3.882969712988e-10       1.262704239438e-13      -3.759348268181e-12       1.060854766557e-14       9.590114707704e-12       1.344917787514e-12      -6.964713118685e-15 
  104       3.920141473278e-10       1.281773311359e-13      -3.840978315821e-12       1.054260931486e-14       9.349843313913e-12       1.317903299480e-12      -6.883582247650e-15 
  105       3.957664709053e-10       1.300510783954e-13      -3.922311290898e-12       1.047329449983e-14       9.116590023698e-12       1.291654613594e-12      -6.810273309992e-15 
  106       3.995541329572e-10       1.318899173323e-13      -4.003285488980e-12       1.040071572044e-14       8.890392717874e-12       1.266173013967e-12      -6.744147681935e-15 
  107       4.033771425994e-10       1.336921059178e-13      -4.083838495848e-12       1.032498874220e-14       8.671239856504e-12       1.241453810501e-12      -6.684479502956e-15 
