# dimensionless total lensed [l(l+1)/2pi] C_l's
# for l=2 to 5000, i.e. number of multipoles equal to 4999
#
# -> if you prefer output in CAMB/HealPix/LensPix units/order, set 'format' to 'camb' in input file
# -> if you don't want to see such a header, set 'headers' to 'no' in input file
# -> for CMB lensing (phi), these are C_l^phi-phi for the lensing potential.
#    Remember the conversion factors:
#    C_l^dd (deflection) = l(l+1) C_l^phi-phi
#    C_l^gg (shear/convergence) = 1/4 (l(l+1))^2 C_l^phi-phi
#
# 1:l     2:TT                     3:EE                     4:TE                     5:BB                     6:phiphi                 7:TPhi                   8:Ephi               
    2       2.856499403655e-10       7.947242377749e-15       5.666302631857e-13       4.885251665005e-15       8.369857093129e-09       4.683805360006e-10      -2.088009307445e-12 
    3       2.440664974608e-10       1.029704504253e-14       4.582090007609e-13       4.920931939913e-15       5.168720199239e-09       3.324473015571e-10      -1.672548769015e-12 
    4       2.250255688893e-10       9.855241421086e-15       3.918161139642e-13       4.280241885866e-15       3.593642755971e-09       2.518805636828e-10      -1.188873046270e-12 
    5       2.143470093900e-10       7.602926096053e-15       3.278900917853e-13       3.353000668598e-15       2.680616462138e-09       1.990402843414e-10      -7.568766502889e-13 
    6       2.073506706018e-10       4.999137306443e-15       2.646693476044e-13       2.432612150557e-15       2.093322835690e-09       1.620397119748e-10      -4.123582895262e-13 
    7       2.027931176027e-10       2.995790095065e-15       2.075886345202e-13       1.680727025187e-15       1.689029483996e-09       1.348793926318e-10      -1.642289152030e-13 
    8       1.998093909604e-10       1.842266875529e-15       1.602696916831e-13       1.151487074900e-15       1.396357028509e-09       1.142188979360e-10      -6.228306112767e-15 
    9       1.979643672448e-10       1.343816031619e-15       1.243727104703e-13       8.330441760996e-16       1.176327176345e-09       9.811059248992e-11       7.644512011256e-14 
   10       1.969241621522e-10       1.194063607268e-15       9.986520684148e-14       6.826361933598e-16       1.005955925327e-09       8.531321691435e-11       1.028075642880e-13 
   11       1.964091997251e-10       1.174799795635e-15       8.544636682798e-14       6.515283561670e-16       8.463965770773e-10       7.521395971030e-11       9.253518573325e-14 
   12       1.963396156977e-10       1.197516692455e-15       7.891325892059e-14       6.967154078746e-16       7.394943312434e-10       6.659625706405e-11       6.357055086851e-14 
   13       1.965549100437e-10       1.251901229722e-15       7.772710771409e-14       7.871930599721e-16       6.517484118666e-10       5.937097187692e-11       2.930836383311e-14 
   14       1.969755543729e-10       1.347543838396e-15       7.961261728615e-14       9.022084900856e-16       5.787423582778e-10       5.324894842970e-11      -1.008785700520e-15 
   15       1.975952752827e-10       1.483102700710e-15       8.273822937646e-14       1.030572317115e-15       5.172983358687e-10       4.808786218223e-11      -2.239806426717e-14 
   16       1.983458818470e-10       1.648075622784e-15       8.582405963482e-14       1.166423618295e-15       4.650615405852e-10       4.367066752710e-11      -3.364422135234e-14 
   17       1.992171126734e-10       1.833146239006e-15       8.819453849670e-14       1.307226518317e-15       4.202535691470e-10       3.977957234098e-11      -3.613975039130e-14 
   18       2.001674348196e-10       2.036136418143e-15       8.964901577375e-14       1.452488312937e-15       3.813630739006e-10       3.636320189875e-11      -3.248245226637e-14 
   19       2.012150217146e-10       2.261061306342e-15       9.036394949957e-14       1.601947412499e-15       3.477749593129e-10       3.337890139687e-11      -2.527104418089e-14 
   20       2.023021532003e-10       2.513210560530e-15       9.065225748835e-14       1.755424487400e-15       3.181937531831e-10       3.070134494029e-11      -1.759698718150e-14 
   21       2.034481135395e-10       2.794344531130e-15       9.073600568365e-14       1.912865965807e-15       2.921546543993e-10       2.832904244507e-11      -1.111354528430e-14 
   22       2.046398366540e-10       3.104358909480e-15       9.079577091223e-14       2.074322878972e-15       2.690346576903e-10       2.625734404189e-11      -6.943143980839e-15 
   23       2.058846566205e-10       3.442067759641e-15       9.087194029300e-14       2.239666013128e-15       2.485154447960e-10       2.443502791362e-11      -5.178096866068e-15 
   24       2.071569604547e-10       3.805672946527e-15       9.089900997792e-14       2.408727716233e-15       2.301221123588e-10       2.277261675489e-11      -5.406917934676e-15 
   25       2.084595750999e-10       4.195122744373e-15       9.062971795754e-14       2.581263538718e-15       2.136384124243e-10       2.124215424746e-11      -7.043749664214e-15 
   26       2.097783491885e-10       4.610785102560e-15       8.972451372031e-14       2.757031092753e-15       1.987663261407e-10       1.982631543628e-11      -9.309415039347e-15 
   27       2.111258444386e-10       5.053026198955e-15       8.794411963590e-14       2.935863501661e-15       1.853276404401e-10       1.854200099965e-11      -1.147795648015e-14 
   28       2.125037155059e-10       5.522234262809e-15       8.507493246370e-14       3.117619760344e-15       1.730907580755e-10       1.740403160051e-11      -1.286416225564e-14 
   29       2.139235992956e-10       6.019291014862e-15       8.099734087600e-14       3.302071160439e-15       1.619929552686e-10       1.639648926300e-11      -1.337666916341e-14 
   30       2.153755242528e-10       6.545263370457e-15       7.561771110632e-14       3.488964306576e-15       1.519146425603e-10       1.547834087107e-11      -1.314841748351e-14 
   31       2.168302227101e-10       7.101249476795e-15       6.886646844340e-14       3.678052046503e-15       1.426498183512e-10       1.460157284184e-11      -1.237244397531e-14 
   32       2.182983779297e-10       7.688283674187e-15       6.079076890053e-14       3.869110091762e-15       1.341507100617e-10       1.376931907655e-11      -1.125671269760e-14 
   33       2.197887571821e-10       8.307397641158e-15       5.150055224152e-14       4.061927506591e-15       1.263574778023e-10       1.299823737187e-11      -1.006163394549e-14 
   34       2.212964745802e-10       8.959586955711e-15       4.111057985838e-14       4.256294367891e-15       1.191613168797e-10       1.229975642282e-11      -9.058080825305e-15 
   35       2.228238369173e-10       9.645608629773e-15       2.961186140490e-14       4.451971619078e-15       1.125253742646e-10       1.166830880065e-11      -8.323216229672e-15 
   36       2.243634852862e-10       1.036610601249e-14       1.695563332997e-14       4.648710645038e-15       1.063962868087e-10       1.108797869160e-11      -7.874478856200e-15 
   37       2.259009320346e-10       1.112165865802e-14       3.088320184498e-15       4.846258134197e-15       1.006941539050e-10       1.054059258583e-11      -7.709309158698e-15 
   38       2.274482351979e-10       1.191278894585e-14      -1.204230998932e-14       5.044346305162e-15       9.540422161334e-11       1.002515396952e-11      -7.759455812790e-15 
   39       2.290193530254e-10       1.273994874022e-14      -2.849226667352e-14       5.242698797224e-15       9.050971622757e-11       9.544227076876e-12      -7.919095341874e-15 
   40       2.306199202858e-10       1.360351098571e-14      -4.632366937697e-14       5.441032687382e-15       8.596395958619e-11       9.098493723450e-12      -8.054698677946e-15 
   41       2.322490116673e-10       1.450381758419e-14      -6.559649407632e-14       5.639068801848e-15       8.170662999910e-11       8.686795382109e-12      -8.040789555972e-15 
   42       2.339073969660e-10       1.544135421385e-14      -8.633930117565e-14       5.836567805295e-15       7.772518221411e-11       8.306727689711e-12      -7.885638098298e-15 
   43       2.355903806438e-10       1.641662370733e-14      -1.085698746993e-13       6.033305077352e-15       7.400903112161e-11       7.953923132217e-12      -7.643391097937e-15 
   44       2.372845780972e-10       1.743009640936e-14      -1.323031155836e-13       6.229061221087e-15       7.053112053280e-11       7.621668731512e-12      -7.380740259665e-15 
   45       2.389747323835e-10       1.848218278332e-14      -1.575487329632e-13       6.423608520473e-15       6.725758487386e-11       7.302922697804e-12      -7.162983112451e-15 
   46       2.406683860901e-10       1.957314509620e-14      -1.843036688665e-13       6.616664841738e-15       6.418326839030e-11       6.997488781798e-12      -7.005472443146e-15 
   47       2.423772921998e-10       2.070315670998e-14      -2.125572832696e-13       6.807926414547e-15       6.130459451019e-11       6.706694099978e-12      -6.908925453275e-15 
   48       2.441101620200e-10       2.187232269104e-14      -2.422931951449e-13       6.997079941791e-15       5.860885334758e-11       6.431341824231e-12      -6.872756472383e-15 
   49       2.458723413167e-10       2.308067678044e-14      -2.734890799525e-13       7.183802076834e-15       5.607352251383e-11       6.171665177441e-12      -6.894979622626e-15 
   50       2.476662744284e-10       2.432815762871e-14      -3.061232336080e-13       7.367782455496e-15       5.367304961711e-11       5.927413168142e-12      -6.971611716639e-15 
   51       2.494937964906e-10       2.561453692401e-14      -3.401968346764e-13       7.548801374975e-15       5.140294587863e-11       5.698241959739e-12      -7.094915696602e-15 
   52       2.513539035882e-10       2.693946651815e-14      -3.757173749499e-13       7.726672296388e-15       4.926105843690e-11       5.483350212617e-12      -7.254512146339e-15 
   53       2.532417391759e-10       2.830249354675e-14      -4.126925342809e-13       7.901220704725e-15       4.724035998718e-11       5.281317769323e-12      -7.437719398784e-15 
   54       2.551483072940e-10       2.970305642371e-14      -4.511302964953e-13       8.072284694555e-15       4.532862073113e-11       5.090065849659e-12      -7.629432682137e-15 
   55       2.570643735894e-10       3.114057805794e-14      -4.910368234997e-13       8.239708823597e-15       4.351213810961e-11       4.907429812238e-12      -7.815437918418e-15 
   56       2.589939602180e-10       3.261478179712e-14      -5.324091936137e-13       8.403322543555e-15       4.178876254813e-11       4.733135250156e-12      -7.993593998417e-15 
   57       2.609437010404e-10       3.412544695526e-14      -5.752410623150e-13       8.562957436959e-15       4.015753298014e-11       4.567243078472e-12      -8.165216738907e-15 
   58       2.629188266033e-10       3.567231825428e-14      -6.195247739419e-13       8.718453796237e-15       3.861473631549e-11       4.409564386029e-12      -8.331900296044e-15 
   59       2.649230405163e-10       3.725510560646e-14      -6.652513902642e-13       8.869660947133e-15       3.715373748550e-11       4.259644496759e-12      -8.495530129155e-15 
   60       2.669583958287e-10       3.887348389680e-14      -7.124107190529e-13       9.016437572133e-15       3.576480948799e-11       4.116747031001e-12      -8.658295964513e-15 
   61       2.690260308653e-10       4.052705375345e-14      -7.609918719684e-13       9.158654934696e-15       3.443783386956e-11       3.980080923215e-12      -8.821738519341e-15 
   62       2.711288494095e-10       4.221521406122e-14      -8.109850199216e-13       9.296206666001e-15       3.317149498421e-11       3.849577078791e-12      -8.983610306300e-15 
   63       2.732692254826e-10       4.393726031600e-14      -8.623800842143e-13       9.429001758855e-15       3.196585728874e-11       3.725258556076e-12      -9.140330000594e-15 
   64       2.754481025266e-10       4.569241968517e-14      -9.151662864551e-13       9.556962267955e-15       3.081959969884e-11       3.607004926237e-12      -9.287869158394e-15 
   65       2.776648970510e-10       4.747984955213e-14      -9.693321939256e-13       9.680023725350e-15       2.972993671092e-11       3.494544043391e-12      -9.421734522563e-15 
   66       2.799174022795e-10       4.929863606094e-14      -1.024865764945e-12       9.798135555902e-15       2.869253952393e-11       3.387443814740e-12      -9.536950328380e-15 
   67       2.822016917973e-10       5.114779266091e-14      -1.081754394233e-12       9.911261492748e-15       2.770145716122e-11       3.285103970710e-12      -9.628040609263e-15 
   68       2.845138914946e-10       5.302626647735e-14      -1.139983472143e-12       1.001936896857e-14       2.675070520561e-11       3.186915426849e-12      -9.690363394878e-15 
   69       2.868561277026e-10       5.493296217625e-14      -1.199531621922e-12       1.012239386452e-14       2.583958214077e-11       3.092794262629e-12      -9.724466786335e-15 
   70       2.892316167513e-10       5.686672034287e-14      -1.260374574459e-12       1.022026933205e-14       2.496829348986e-11       3.002741653453e-12      -9.732587805196e-15 
   71       2.916428556127e-10       5.882630885069e-14      -1.322486576252e-12       1.031293631620e-14       2.413634393653e-11       2.916681979289e-12      -9.717395176392e-15 
   72       2.940915733306e-10       6.081042160616e-14      -1.385840396767e-12       1.040034368915e-14       2.334250109663e-11       2.834458881031e-12      -9.682006209196e-15 
   73       2.965786824493e-10       6.281767729344e-14      -1.450407335796e-12       1.048244838371e-14       2.258475929005e-11       2.755831316876e-12      -9.630003678203e-15 
   74       2.991042304438e-10       6.484661811915e-14      -1.516157230811e-12       1.055921552683e-14       2.186030331246e-11       2.680469618690e-12      -9.565452704308e-15 
   75       3.016673511487e-10       6.689570855713e-14      -1.583058464322e-12       1.063061857312e-14       2.116547220717e-11       2.607951548379e-12      -9.492917635678e-15 
   76       3.042670797801e-10       6.896339525880e-14      -1.651078544806e-12       1.069663937827e-14       2.049666772585e-11       2.537868273879e-12      -9.416585660337e-15 
   77       3.069050769505e-10       7.104830217157e-14      -1.720185955540e-12       1.075726813961e-14       1.985335104939e-11       2.470173325367e-12      -9.337415825443e-15 
   78       3.095833154565e-10       7.314906888599e-14      -1.790348657843e-12       1.081250368724e-14       1.923552925310e-11       2.404890403761e-12      -9.255498381835e-15 
   79       3.123032303906e-10       7.526429262568e-14      -1.861533566221e-12       1.086235367328e-14       1.864284251298e-11       2.342007444006e-12      -9.170900517957e-15 
   80       3.150656882798e-10       7.739252824633e-14      -1.933706567483e-12       1.090683470415e-14       1.807454724917e-11       2.281474925427e-12      -9.083664923634e-15 
   81       3.178709562234e-10       7.953228823472e-14      -2.006832539864e-12       1.094597247287e-14       1.752949926932e-11       2.223204182096e-12      -8.993808353865e-15 
   82       3.207186710312e-10       8.168204270772e-14      -2.080875372135e-12       1.097980189135e-14       1.700613691200e-11       2.167065713189e-12      -8.901320192601e-15 
   83       3.236078083616e-10       8.384021941126e-14      -2.155797982730e-12       1.100836722262e-14       1.650246419007e-11       2.112887493347e-12      -8.806161016536e-15 
   84       3.265373002588e-10       8.600519677083e-14      -2.231561434071e-12       1.103171771471e-14       1.601653575339e-11       2.060499822490e-12      -8.708345378363e-15 
   85       3.295080729935e-10       8.817528172125e-14      -2.308122064995e-12       1.104989338058e-14       1.554804107444e-11       2.009882119196e-12      -8.608209070789e-15 
   86       3.325212920395e-10       9.034872818262e-14      -2.385433915784e-12       1.106293709237e-14       1.509695320246e-11       1.961037477833e-12      -8.506183742008e-15 
   87       3.355777240424e-10       9.252374356604e-14      -2.463449594545e-12       1.107089892608e-14       1.466304199594e-11       1.913947398693e-12      -8.402716595143e-15 
   88       3.386777168539e-10       9.469848865582e-14      -2.542120281116e-12       1.107383621827e-14       1.424586570004e-11       1.868570880531e-12      -8.298270367485e-15 
   89       3.418211795683e-10       9.687107749170e-14      -2.621395730979e-12       1.107181362272e-14       1.384476252383e-11       1.824843513101e-12      -8.193323309732e-15 
   90       3.450075625576e-10       9.903957725111e-14      -2.701224279173e-12       1.106490316710e-14       1.345884221773e-11       1.782676569688e-12      -8.088369165226e-15 
   91       3.482358375071e-10       1.012020081313e-13      -2.781552844203e-12       1.105318430968e-14       1.308697765077e-11       1.741956099652e-12      -7.983917149190e-15 
   92       3.515044774510e-10       1.033563432317e-13      -2.862326931955e-12       1.103674399597e-14       1.272779638797e-11       1.702542020954e-12      -7.880491927970e-15 
   93       3.548120397346e-10       1.055005606200e-13      -2.943491583616e-12       1.101567260674e-14       1.238000620782e-11       1.664302081536e-12      -7.778586641342e-15 
   94       3.581590585599e-10       1.076328087438e-13      -3.024994374043e-12       1.099005098183e-14       1.204344595212e-11       1.627221557290e-12      -7.678513932343e-15 
   95       3.615464014907e-10       1.097512657952e-13      -3.106782873680e-12       1.095996154044e-14       1.171817788675e-11       1.591308451626e-12      -7.580532369681e-15 
   96       3.649746803569e-10       1.118540903335e-13      -3.188803761371e-12       1.092549221614e-14       1.140416405666e-11       1.556559673618e-12      -7.484890751902e-15 
   97       3.684442395662e-10       1.139394218843e-13      -3.271002841230e-12       1.088673645721e-14       1.110126244714e-11       1.522960609177e-12      -7.391827442064e-15 
   98       3.719551444154e-10       1.160053815375e-13      -3.353325059507e-12       1.084379322684e-14       1.080922314511e-11       1.490484692223e-12      -7.301569702403e-15 
   99       3.755071694029e-10       1.180500725461e-13      -3.435714521466e-12       1.079676700349e-14       1.052768450036e-11       1.459092975865e-12      -7.214333029000e-15 
  100       3.790997865401e-10       1.200715809249e-13      -3.518114508245e-12       1.074576778108e-14       1.025616928688e-11       1.428733703574e-12      -7.130320486452e-15 
  101       3.827321536634e-10       1.220679760487e-13      -3.600467493735e-12       1.069091106935e-14       9.994080864124e-12       1.399341880356e-12      -7.049722042538e-15 
  102       3.864031027458e-10       1.240373112511e-13      -3.682715161442e-12       1.063231789407e-14       9.740699338269e-12       1.370838843927e-12      -6.972713902890e-15 
  103       3.901111282090e-10       1.259776244229e-13      -3.764798421361e-12       1.057011479738e-14       9.495177723524e-12       1.343131835891e-12      -6.899457845659e-15 
  104       3.938547916076e-10       1.278869779881e-13      -3.846657340499e-12       1.050442908292e-14       9.256733895554e-12       1.316135619402e-12      -6.830035994095e-15 
  105       3.976340231155e-10       1.297635836924e-13      -3.928230887408e-12       1.043537381940e-14       9.025264251105e-12       1.289841581572e-12      -6.764246532331e-15 
  106       4.014489748799e-10       1.316056958660e-13      -4.009457184431e-12       1.036306080233e-14       8.800806174284e-12       1.264257209799e-12      -6.701779024945e-15 
  107       4.052996133211e-10       1.334115745704e-13      -4.090273606697e-12       1.028760507689e-14       8.583347980143e-12       1.239384694543e-12      -6.642275156558e-15 
