# dimensionless total lensed [l(l+1)/2pi] C_l's
# for l=2 to 5000, i.e. number of multipoles equal to 4999
#
# -> if you prefer output in CAMB/HealPix/LensPix units/order, set 'format' to 'camb' in input file
# -> if you don't want to see such a header, set 'headers' to 'no' in input file
# -> for CMB lensing (phi), these are C_l^phi-phi for the lensing potential.
#    Remember the conversion factors:
#    C_l^dd (deflection) = l(l+1) C_l^phi-phi
#    C_l^gg (shear/convergence) = 1/4 (l(l+1))^2 C_l^phi-phi
#
# 1:l     2:TT                     3:EE                     4:TE                     5:BB                     6:phiphi                 7:TPhi                   8:Ephi               
    2       2.865955944851e-10       7.887690997575e-15       5.644416320114e-13       4.852153904349e-15       8.375751015770e-09       4.723423893651e-10      -2.078004554788e-12 
    3       2.447272450274e-10       1.020538399264e-14       4.559186457002e-13       4.883652018376e-15       5.150505846600e-09       3.349495241658e-10      -1.663873973191e-12 
    4       2.256174324943e-10       9.753779882748e-15       3.898850157291e-13       4.244260177176e-15       3.577647344722e-09       2.537720268188e-10      -1.181421814794e-12 
    5       2.148577133238e-10       7.513342934042e-15       3.262435208428e-13       3.322124442966e-15       2.668916516375e-09       2.005049855954e-10      -7.507426454108e-13 
    6       2.078074931088e-10       4.933941584235e-15       2.632984136232e-13       2.408661691170e-15       2.084075402648e-09       1.631357278280e-10      -4.076612859022e-13 
    7       2.031868897036e-10       2.956071202268e-15       2.065150938720e-13       1.663779527413e-15       1.681015006903e-09       1.357480542157e-10      -1.609304607934e-13 
    8       2.002127191708e-10       1.821519532001e-15       1.594909055632e-13       1.140753990453e-15       1.389161483763e-09       1.149828135328e-10      -4.201304606073e-15 
    9       1.983369147681e-10       1.334031443903e-15       1.238974667778e-13       8.270024759111e-16       1.169601172461e-09       9.876307215182e-11       7.741630810468e-14 
   10       1.972738870922e-10       1.188964562482e-15       9.963761131564e-14       6.800595915902e-16       9.994405648295e-10       8.582182874543e-11       1.030089776625e-13 
   11       1.967739783369e-10       1.171521700069e-15       8.530940177774e-14       6.510702856025e-16       8.431839866610e-10       7.565230257326e-11       9.227643012393e-14 
   12       1.966420281064e-10       1.195021235501e-15       7.881655873888e-14       6.976859352251e-16       7.366507673368e-10       6.703630961672e-11       6.319530624847e-14 
   13       1.968711226188e-10       1.250295248316e-15       7.769982015884e-14       7.889190102180e-16       6.491969410707e-10       5.969230793830e-11       2.884639946962e-14 
   14       1.973077516894e-10       1.346836100829e-15       7.957081644050e-14       9.044032170228e-16       5.764393941281e-10       5.361324456644e-11      -1.199412118066e-15 
   15       1.978984556692e-10       1.483034709542e-15       8.264356046396e-14       1.033205029956e-15       5.152097149975e-10       4.844814791172e-11      -2.232503886837e-14 
   16       1.986602469026e-10       1.648676490692e-15       8.569117782890e-14       1.169197038083e-15       4.631530993201e-10       4.387837989629e-11      -3.356455442012e-14 
   17       1.995195871608e-10       1.834101328735e-15       8.798533089609e-14       1.310439059949e-15       4.184982876487e-10       3.995710411025e-11      -3.590616216016e-14 
   18       2.004629686374e-10       2.037733924422e-15       8.943422614830e-14       1.456049824245e-15       3.797429466657e-10       3.652843109451e-11      -3.212905436564e-14 
   19       2.015134003644e-10       2.263584395646e-15       9.017898875451e-14       1.605750236076e-15       3.462716044307e-10       3.352521405694e-11      -2.490699894710e-14 
   20       2.025976067848e-10       2.516611294776e-15       9.043671608220e-14       1.759583145591e-15       3.167946565053e-10       3.086090230206e-11      -1.729213759253e-14 
   21       2.037432720860e-10       2.798526421765e-15       9.047030204724e-14       1.917450853720e-15       2.908485689217e-10       2.850306461508e-11      -1.090163903038e-14 
   22       2.049503986828e-10       3.109271893889e-15       9.053808601074e-14       2.079276641285e-15       2.678116889591e-10       2.639787720986e-11      -6.823313597889e-15 
   23       2.062112271989e-10       3.447656154361e-15       9.064327813422e-14       2.244942751269e-15       2.473668920822e-10       2.451465571097e-11      -5.155640477334e-15 
   24       2.074798392235e-10       3.811866435558e-15       9.065272284722e-14       2.414345007453e-15       2.290412389082e-10       2.281112572032e-11      -5.489152576265e-15 
   25       2.087759101983e-10       4.201869397363e-15       9.034134000116e-14       2.587287510529e-15       2.126186462371e-10       2.129013348944e-11      -7.144330139396e-15 
   26       2.101097943011e-10       4.618063471857e-15       8.941231242287e-14       2.763559415725e-15       1.978014167331e-10       1.994600908692e-11      -9.253751719188e-15 
   27       2.114796905051e-10       5.060820728901e-15       8.759606959475e-14       2.942941208551e-15       1.844123101015e-10       1.872910093472e-11      -1.124534222869e-14 
   28       2.128629274986e-10       5.530530941695e-15       8.463414725407e-14       3.125218690946e-15       1.722212091203e-10       1.757310057139e-11      -1.264106370456e-14 
   29       2.142737973678e-10       6.028087806955e-15       8.043120761035e-14       3.310169646103e-15       1.611655784104e-10       1.648444954612e-11      -1.330677016151e-14 
   30       2.157156613495e-10       6.554577087161e-15       7.494877759758e-14       3.497578432311e-15       1.511259939843e-10       1.548840597206e-11      -1.322911640821e-14 
   31       2.171720477996e-10       7.111112957483e-15       6.816762053884e-14       3.687234926121e-15       1.418969556893e-10       1.460119101299e-11      -1.245795295314e-14 
   32       2.186499159855e-10       7.698713598996e-15       6.010934218239e-14       3.878908350719e-15       1.334308708360e-10       1.381161469638e-11      -1.122606535847e-14 
   33       2.201476183052e-10       8.318380145582e-15       5.082576984578e-14       4.072364185994e-15       1.256682393741e-10       1.309056529730e-11      -9.884938235684e-15 
   34       2.216511297080e-10       8.971085076864e-15       4.037776477437e-14       4.267362641415e-15       1.185007774330e-10       1.240494354613e-11      -8.796444110447e-15 
   35       2.231689433230e-10       9.657621066041e-15       2.877458829264e-14       4.463629411485e-15       1.118916886821e-10       1.175411203983e-11      -8.039485847151e-15 
   36       2.247062349478e-10       1.037869347665e-14       1.601423512000e-14       4.660873864063e-15       1.057876603319e-10       1.114532689354e-11      -7.602019347828e-15 
   37       2.262597409482e-10       1.113493585320e-14       2.087166736205e-15       4.858811628639e-15       1.001089556430e-10       1.058319210079e-11      -7.452102592824e-15 
   38       2.278371834990e-10       1.192684175415e-14      -1.306602806954e-14       5.057218066405e-15       9.484086509031e-11       1.006726462366e-11      -7.521177978726e-15 
   39       2.294421028489e-10       1.275480101289e-14      -2.952726552354e-14       5.255892756122e-15       8.996671970864e-11       9.593171604370e-12      -7.712557431475e-15 
   40       2.310672439924e-10       1.361911017498e-14      -4.739083688703e-14       5.454645984661e-15       8.544008411518e-11       9.152859073441e-12      -7.903675190508e-15 
   41       2.327004333107e-10       1.452004507751e-14      -6.674566125386e-14       5.653279073740e-15       8.120093038125e-11       8.737111527442e-12      -7.976765793371e-15 
   42       2.343471647088e-10       1.545812164381e-14      -8.761284414055e-14       5.851516161636e-15       7.723673393970e-11       8.344833968461e-12      -7.927061727893e-15 
   43       2.360135067898e-10       1.643390973537e-14      -1.099893685312e-13       6.049051261656e-15       7.353689602827e-11       7.976275561405e-12      -7.786910124509e-15 
   44       2.376991429019e-10       1.744796114032e-14      -1.338646827291e-13       6.245565882226e-15       7.007440748407e-11       7.630354142726e-12      -7.596898459809e-15 
   45       2.394004572561e-10       1.850075338652e-14      -1.592246236483e-13       6.440742477363e-15       6.681548292717e-11       7.305224061446e-12      -7.399300404879e-15 
   46       2.411223672833e-10       1.959250279680e-14      -1.860654099501e-13       6.634311415211e-15       6.375497542684e-11       7.000446504977e-12      -7.214890303689e-15 
   47       2.428689648360e-10       2.072329435595e-14      -2.143832370751e-13       6.826016736058e-15       6.088932795560e-11       6.715277184384e-12      -7.060053591706e-15 
   48       2.446397107858e-10       2.189312855345e-14      -2.441702660906e-13       7.015603192529e-15       5.820589407508e-11       6.447971512042e-12      -6.953337181415e-15 
   49       2.464290233631e-10       2.310191748906e-14      -2.754145198692e-13       7.202816295575e-15       5.568226204138e-11       6.195711580201e-12      -6.915546494286e-15 
   50       2.482298560537e-10       2.434950397948e-14      -3.081039207371e-13       7.387405102413e-15       5.329300252409e-11       5.955444813435e-12      -6.963156457210e-15 
   51       2.500465312697e-10       2.563573402745e-14      -3.422399363333e-13       7.569131365797e-15       5.103363910892e-11       5.726837704474e-12      -7.086210896519e-15 
   52       2.518846786534e-10       2.696039729191e-14      -3.778274583031e-13       7.747762947702e-15       4.890201599175e-11       5.509997614552e-12      -7.264591910000e-15 
   53       2.537473313796e-10       2.832320306086e-14      -4.148710734727e-13       7.923071465288e-15       4.689112423851e-11       5.304601769185e-12      -7.473969146436e-15 
   54       2.556347022390e-10       2.972377743942e-14      -4.533751549209e-13       8.094832465922e-15       4.498877523713e-11       5.109867139044e-12      -7.685582200600e-15 
   55       2.575458193522e-10       3.116170240836e-14      -4.933429299087e-13       8.262835671834e-15       4.318131465588e-11       4.924828230989e-12      -7.872857442548e-15 
   56       2.594844221285e-10       3.263665080434e-14      -5.347732038858e-13       8.426918293402e-15       4.146659283494e-11       4.749320273313e-12      -8.033681914536e-15 
   57       2.614541377816e-10       3.414827994626e-14      -5.776629821754e-13       8.586940298162e-15       3.984364454384e-11       4.583187518793e-12      -8.173281596031e-15 
   58       2.634566018591e-10       3.569619154757e-14      -6.220084719082e-13       8.742775621227e-15       3.830876533310e-11       4.425979005530e-12      -8.297919377013e-15 
   59       2.654913067787e-10       3.727993053564e-14      -6.678051332301e-13       8.894312732633e-15       3.685534240836e-11       4.276930434312e-12      -8.414943729641e-15 
   60       2.675554503643e-10       3.889898387104e-14      -7.150477305117e-13       9.041455204679e-15       3.547368550465e-11       4.134946045984e-12      -8.532837379913e-15 
   61       2.696457769144e-10       4.055278847082e-14      -7.637294405533e-13       9.184113846107e-15       3.415371567175e-11       3.998900743422e-12      -8.659123499358e-15 
   62       2.717649259632e-10       4.224075972749e-14      -8.138388274383e-13       9.322179757999e-15       3.289411949816e-11       3.868666701293e-12      -8.793424974834e-15 
   63       2.739162462775e-10       4.396226732541e-14      -8.653622764337e-13       9.455546209220e-15       3.169495888540e-11       3.744286079643e-12      -8.932926495999e-15 
   64       2.761018425797e-10       4.571662582763e-14      -9.182848979415e-13       9.584116829731e-15       3.055491756048e-11       3.625663309362e-12      -9.074360636136e-15 
   65       2.783224873058e-10       4.750309378408e-14      -9.725905487866e-13       9.707805910344e-15       2.947122262937e-11       3.512557130672e-12      -9.213988544554e-15 
   66       2.805775323631e-10       4.932087283976e-14      -1.028261853505e-12       9.826538702496e-15       2.843956613067e-11       3.404572631610e-12      -9.347580638977e-15 
   67       2.828648208883e-10       5.116910684294e-14      -1.085280225630e-12       9.940251718006e-15       2.745402658908e-11       3.301153286520e-12      -9.470397297933e-15 
   68       2.851820699406e-10       5.304685873821e-14      -1.143625787535e-12       1.004888810521e-14       2.650864909662e-11       3.201736334835e-12      -9.577962641646e-15 
   69       2.875315411669e-10       5.495303780224e-14      -1.203277063496e-12       1.015238201931e-14       2.560273269073e-11       3.106273273485e-12      -9.668611098973e-15 
   70       2.899161623629e-10       5.688645599427e-14      -1.264211262392e-12       1.025067160903e-14       2.473647833611e-11       3.014801012124e-12      -9.741424527773e-15 
   71       2.923380905602e-10       5.884584743284e-14      -1.326404392009e-12       1.034370383070e-14       2.390938980784e-11       2.927284148191e-12      -9.795485740486e-15 
   72       2.947986614036e-10       6.082986693589e-14      -1.389831277732e-12       1.043143462216e-14       2.312023766252e-11       2.843611182898e-12      -9.829879480116e-15 
   73       2.972983385293e-10       6.283708856075e-14      -1.454465581239e-12       1.051382907655e-14       2.236702320944e-11       2.763590737220e-12      -9.843693396217e-15 
   74       2.998366629426e-10       6.486600414416e-14      -1.520279819197e-12       1.059086161618e-14       2.164694248170e-11       2.686947767879e-12      -9.836019020876e-15 
   75       3.024122023953e-10       6.691502184234e-14      -1.587245381952e-12       1.066251616636e-14       2.095635020742e-11       2.613319783332e-12      -9.805952744703e-15 
   76       3.050234886241e-10       6.898253651930e-14      -1.655332426014e-12       1.072878379818e-14       2.029166381437e-11       2.542348615573e-12      -9.753026505986e-15 
   77       3.076721382811e-10       7.106715895791e-14      -1.724509487564e-12       1.078965477637e-14       1.965234540379e-11       2.473983420579e-12      -9.678588372131e-15 
   78       3.103602117939e-10       7.316752598832e-14      -1.794743832099e-12       1.084512537044e-14       1.903840062314e-11       2.408226313376e-12      -9.584676656736e-15 
   79       3.130892461188e-10       7.528223236078e-14      -1.866001590238e-12       1.089520037703e-14       1.844947039149e-11       2.345039918946e-12      -9.473622169916e-15 
   80       3.158602243762e-10       7.740983075897e-14      -1.938247773828e-12       1.093989324186e-14       1.788481414684e-11       2.284345547662e-12      -9.348058005908e-15 
   81       3.186735454847e-10       7.954883181334e-14      -2.011446292042e-12       1.097922618167e-14       1.734329309336e-11       2.226021370725e-12      -9.210929330671e-15 
   82       3.215289937959e-10       8.169770411450e-14      -2.085559967495e-12       1.101323030615e-14       1.682335344878e-11       2.169900595601e-12      -9.065503169490e-15 
   83       3.244257087289e-10       8.385487422645e-14      -2.160550552340e-12       1.104194573990e-14       1.632300969160e-11       2.115769641457e-12      -8.915378194577e-15 
   84       3.273627729846e-10       8.601871988222e-14      -2.236378046192e-12       1.106541799039e-14       1.584032659190e-11       2.063421543674e-12      -8.764003662249e-15 
   85       3.303411557442e-10       8.818754824503e-14      -2.312998484680e-12       1.108368609308e-14       1.537499381538e-11       2.012830336323e-12      -8.613123153935e-15 
   86       3.333620374364e-10       9.035961405098e-14      -2.390365812109e-12       1.109679271546e-14       1.492698285376e-11       1.964002367779e-12      -8.464089585931e-15 
   87       3.364262001244e-10       9.253312600664e-14      -2.468432551354e-12       1.110478779422e-14       1.449606320397e-11       1.916922758842e-12      -8.318334636492e-15 
   88       3.395340075376e-10       9.470624668782e-14      -2.547149808231e-12       1.110772859413e-14       1.408179399834e-11       1.871554506393e-12      -8.177370283842e-15 
   89       3.426853851018e-10       9.687709243835e-14      -2.626467275872e-12       1.110567976684e-14       1.368351563487e-11       1.827837587057e-12      -8.042790344191e-15 
   90       3.458797999704e-10       9.904373326877e-14      -2.706333239092e-12       1.109871340977e-14       1.330034140740e-11       1.785688060851e-12      -7.916272009753e-15 
   91       3.491162410552e-10       1.012041927552e-13      -2.786694578763e-12       1.108690912495e-14       1.293114913585e-11       1.744997174848e-12      -7.799577386757e-15 
   92       3.523931990574e-10       1.033564479378e-13      -2.867496776182e-12       1.107035407783e-14       1.257457279643e-11       1.705630466827e-12      -7.694555033463e-15 
   93       3.557092428041e-10       1.054984805093e-13      -2.948684832363e-12       1.104913881003e-14       1.222932625940e-11       1.667459904512e-12      -7.602636913222e-15 
   94       3.590648907852e-10       1.076284394048e-13      -3.030206174564e-12       1.102334382913e-14       1.189524837870e-11       1.630467779502e-12      -7.523239367293e-15 
   95       3.624609854849e-10       1.097445025919e-13      -3.112008197015e-12       1.099305110141e-14       1.157240034040e-11       1.594656854448e-12      -7.455123372827e-15 
   96       3.658981105303e-10       1.118448285551e-13      -3.194037401656e-12       1.095834811880e-14       1.126074380033e-11       1.560018282824e-12      -7.396872383226e-15 
   97       3.693765789077e-10       1.139275568984e-13      -3.276239415065e-12       1.091932789947e-14       1.096013707314e-11       1.526531166050e-12      -7.346886939797e-15 
   98       3.728964211792e-10       1.159908089480e-13      -3.358559005392e-12       1.087608898838e-14       1.067033132127e-11       1.494162110628e-12      -7.303379283417e-15 
   99       3.764573736987e-10       1.180326883555e-13      -3.440940099284e-12       1.082873545785e-14       1.039096674395e-11       1.462864785271e-12      -7.264367966193e-15 
  100       3.800588668283e-10       1.200512817004e-13      -3.523325798819e-12       1.077737690811e-14       1.012156876624e-11       1.432579478032e-12      -7.227672463118e-15 
  101       3.837000131546e-10       1.220446590927e-13      -3.605658398433e-12       1.072212846786e-14       9.861544227987e-12       1.403232653434e-12      -7.190907783738e-15 
  102       3.873795957048e-10       1.240108747763e-13      -3.687879401854e-12       1.066311079485e-14       9.610177572831e-12       1.374736509603e-12      -7.151479083803e-15 
  103       3.910960561633e-10       1.259479677311e-13      -3.769929539028e-12       1.060045007639e-14       9.366627037234e-12       1.346988535397e-12      -7.106576276936e-15 
  104       3.948479129133e-10       1.278540014435e-13      -3.851748722730e-12       1.053427331386e-14       9.130115268889e-12       1.319895808738e-12      -7.053811504929e-15 
  105       3.986351048565e-10       1.297271880363e-13      -3.933275875256e-12       1.046469344917e-14       8.900538716249e-12       1.293452583685e-12      -6.993241226660e-15 
  106       4.024578080008e-10       1.315657821087e-13      -4.014449109770e-12       1.039182222080e-14       8.677933837079e-12       1.267672407401e-12      -6.925608510125e-15 
  107       4.063160148701e-10       1.333680440871e-13      -4.095205804610e-12       1.031577464978e-14       8.462288365836e-12       1.242564145950e-12      -6.851726221949e-15 
