# Matter power spectrum P(k) at redshift z=0
# for k=1.03892e-05 to 108.968 h/Mpc,
# number of wavenumbers equal to 813
#    1:k (h/Mpc)              2:P (Mpc/h)^3        
       1.038922642939e-05       4.698341204325e+01 
       2.321812845777e-05       1.026212067025e+02 
       3.609173375949e-05       1.575262295296e+02 
       4.904439972293e-05       2.121921728404e+02 
       6.211104703766e-05       2.669140105398e+02 
       7.532746857054e-05       3.219213747524e+02 
       8.873064803662e-05       3.774162206604e+02 
       1.023590926717e-04       4.335884119531e+02 
       1.162531841463e-04       4.906238900662e+02 
       1.304555519933e-04       5.487097419491e+02 
       1.450114738307e-04       6.080378311019e+02 
       1.599693066034e-04       6.688077239336e+02 
       1.753809529045e-04       7.312292563945e+02 
       1.913023660834e-04       7.955249404247e+02 
       2.077940972269e-04       8.619323142792e+02 
       2.249218860767e-04       9.307062987900e+02 
       2.427572963652e-04       1.002121584011e+03 
       2.613783937036e-04       1.076475069836e+03 
       2.808704607789e-04       1.154088300893e+03 
       3.013267399005e-04       1.235309910727e+03 
       3.228491865167e-04       1.320517948452e+03 
       3.455492088079e-04       1.410122014355e+03 
       3.695483574944e-04       1.504565018934e+03 
       3.949789163030e-04       1.604324385553e+03 
       4.219843271272e-04       1.709912393775e+03 
       4.507193652352e-04       1.821875360421e+03 
       4.813499601652e-04       1.940791219487e+03 
       5.140525395271e-04       2.067265069048e+03 
       5.490127596148e-04       2.201922178647e+03 
       5.864234840096e-04       2.345397990848e+03 
       6.264818862127e-04       2.498324775971e+03 
       6.693855924581e-04       2.661314710966e+03 
       7.153278526981e-04       2.834939569317e+03 
       7.644918337246e-04       3.019707565433e+03 
       8.170442631527e-04       3.216038486340e+03 
       8.731288004716e-04       3.424238765314e+03 
       9.328596440384e-04       3.644478511829e+03 
       9.963159657110e-04       3.876773030790e+03 
       1.063537764317e-03       4.120970902594e+03 
       1.134523625953e-03       4.376750518847e+03 
       1.209230678886e-03       4.643625770850e+03 
       1.287576767588e-03       4.920960932186e+03 
       1.369444598904e-03       5.207978115233e+03 
       1.454687391583e-03       5.503802910951e+03 
       1.543135431286e-03       5.807525481430e+03 
       1.634602911679e-03       6.118173243344e+03 
       1.728894515035e-03       6.434761507963e+03 
       1.825811320086e-03       6.756317477450e+03 
       1.925155782401e-03       7.081899474160e+03 
       2.026735680812e-03       7.410611712486e+03 
       2.130367041837e-03       7.741614404128e+03 
       2.235876134908e-03       8.074130718550e+03 
       2.343100676070e-03       8.407448908405e+03 
       2.451890393792e-03       8.740922942658e+03 
       2.562107106469e-03       9.073971031046e+03 
       2.673624445201e-03       9.406072200622e+03 
       2.786327333995e-03       9.736762918348e+03 
       2.900111316992e-03       1.006563221129e+04 
       3.014881801364e-03       1.039231916942e+04 
       3.130553266383e-03       1.071650485967e+04 
       3.247048474339e-03       1.103791246068e+04 
       3.364297707344e-03       1.135629810306e+04 
       3.482238045183e-03       1.167145301065e+04 
       3.600812692879e-03       1.198319322165e+04 
       3.719970362018e-03       1.229136496703e+04 
       3.839664706618e-03       1.259583136707e+04 
       3.959853812268e-03       1.289647984087e+04 
       4.080499735881e-03       1.319321564757e+04 
       4.201568092653e-03       1.348595579972e+04 
       4.323027686457e-03       1.377463834803e+04 
       4.444850179783e-03       1.405920368385e+04 
       4.567009799409e-03       1.433961727219e+04 
       4.689483074174e-03       1.461584090970e+04 
       4.812248601458e-03       1.488785368499e+04 
       4.935286839263e-03       1.515564289194e+04 
       5.058579921044e-03       1.541919578128e+04 
       5.182111490760e-03       1.567850919766e+04 
       5.305866555835e-03       1.593358773561e+04 
       5.429831356000e-03       1.618443577898e+04 
       5.553993246208e-03       1.643106814465e+04 
       5.678340591997e-03       1.667349365682e+04 
       5.802862675902e-03       1.691173619032e+04 
       5.927549613644e-03       1.714582291347e+04 
       6.052392279003e-03       1.737579705335e+04 
       6.177382236385e-03       1.760162038009e+04 
       6.302511680230e-03       1.782333783887e+04 
       6.427773380501e-03       1.804100900304e+04 
       6.553160633584e-03       1.825463260086e+04 
       6.678667218001e-03       1.846412970705e+04 
       6.804287354430e-03       1.866977523675e+04 
       6.930015669548e-03       1.887148363155e+04 
       7.055847163317e-03       1.906929812578e+04 
       7.181777179324e-03       1.926324185449e+04 
       7.307801377880e-03       1.945334989094e+04 
       7.433915711576e-03       1.963967430409e+04 
       7.560116403057e-03       1.982223560571e+04 
       7.686399924782e-03       2.000107541812e+04 
       7.812762980579e-03       2.017623096480e+04 
       7.939202488810e-03       2.034773749350e+04 
       8.065715566993e-03       2.051562875990e+04 
       8.192299517746e-03       2.067994799133e+04 
       8.318951815908e-03       2.084072539040e+04 
       8.445670096748e-03       2.099799754467e+04 
       8.572452145146e-03       2.115180233138e+04 
       8.699295885663e-03       2.130218202039e+04 
       8.826199373408e-03       2.144917041746e+04 
       8.953160785648e-03       2.159279614865e+04 
       9.080178414077e-03       2.173309891598e+04 
       9.207250657696e-03       2.187013944208e+04 
       9.334376016246e-03       2.200391951957e+04 
       9.461553084149e-03       2.213448868855e+04 
       9.588780544910e-03       2.226188106405e+04 
       9.716057165945e-03       2.238612997818e+04 
       9.843381793799e-03       2.250726922070e+04 
       9.970753349712e-03       2.262534835137e+04 
       1.009817082553e-02       2.274037907779e+04 
       1.022563327988e-02       2.285240959379e+04 
       1.035313983469e-02       2.296146750429e+04 
       1.048068967188e-02       2.306756980139e+04 
       1.060828203033e-02       2.317079786301e+04 
       1.073591620312e-02       2.327116139665e+04 
       1.086359153481e-02       2.336865130641e+04 
       1.099130741913e-02       2.346335850183e+04 
       1.111906329662e-02       2.355530480599e+04 
       1.124685865257e-02       2.364446865960e+04 
       1.137469301507e-02       2.373094115453e+04 
       1.150256595319e-02       2.381475078785e+04 
       1.163047707528e-02       2.389588383480e+04 
       1.175842602739e-02       2.397442626110e+04 
       1.188641249182e-02       2.405037012169e+04 
       1.201443618576e-02       2.412375421729e+04 
       1.214249686003e-02       2.419461044686e+04 
       1.227059429786e-02       2.426297692568e+04 
       1.239872831385e-02       2.432887368402e+04 
       1.252689875292e-02       2.439231943929e+04 
       1.265510548940e-02       2.445335136609e+04 
       1.278334842612e-02       2.451201635115e+04 
       1.291162749359e-02       2.456831480584e+04 
       1.303994264930e-02       2.462230355829e+04 
       1.316829387699e-02       2.467398527648e+04 
       1.329668118602e-02       2.472340558675e+04 
       1.342510461074e-02       2.477057177879e+04 
       1.355356421003e-02       2.481553197032e+04 
       1.368206006672e-02       2.485829136621e+04 
       1.381059228718e-02       2.489891176064e+04 
       1.393916100088e-02       2.493737557720e+04 
       1.406776636002e-02       2.497373571596e+04 
       1.419640853919e-02       2.500802196121e+04 
       1.432508773506e-02       2.504025577600e+04 
       1.445380416611e-02       2.507044090884e+04 
       1.458255807237e-02       2.509862902628e+04 
       1.471134971523e-02       2.512483462911e+04 
       1.484017937721e-02       2.514908631172e+04 
       1.496904736186e-02       2.517140689676e+04 
       1.509795399360e-02       2.519182145216e+04 
       1.522689961757e-02       2.521035403436e+04 
       1.535588459964e-02       2.522703286895e+04 
       1.548490932627e-02       2.524187654259e+04 
       1.561397420449e-02       2.525490951770e+04 
       1.574307966191e-02       2.526616224984e+04 
       1.587222614672e-02       2.527565946063e+04 
       1.600141412769e-02       2.528340207118e+04 
       1.613064409423e-02       2.528942531302e+04 
       1.625991655648e-02       2.529376649352e+04 
       1.638923204534e-02       2.529643567679e+04 
       1.651859111263e-02       2.529745342592e+04 
       1.664799433120e-02       2.529686459692e+04 
       1.677744229502e-02       2.529465761209e+04 
       1.690693561941e-02       2.529089654062e+04 
       1.703647494116e-02       2.528554190835e+04 
       1.716606091875e-02       2.527864556472e+04 
       1.729569423256e-02       2.527025719942e+04 
       1.742537558506e-02       2.526035791778e+04 
       1.755510570111e-02       2.524901991129e+04 
       1.768488532816e-02       2.523620486791e+04 
       1.781471523658e-02       2.522197835293e+04 
       1.794459621991e-02       2.520634275286e+04 
       1.807452909519e-02       2.518928458536e+04 
       1.820451470329e-02       2.517088305472e+04 
       1.833455390922e-02       2.515115726080e+04 
       1.846464760255e-02       2.513008930126e+04 
       1.859479669771e-02       2.510770458625e+04 
       1.872500213445e-02       2.508405948098e+04 
       1.885526487820e-02       2.505913020209e+04 
       1.898558592054e-02       2.503294354965e+04 
       1.911596627961e-02       2.500554193934e+04 
       1.924640700059e-02       2.497692412059e+04 
       1.937690915616e-02       2.494711710371e+04 
       1.950747384705e-02       2.491615513178e+04 
       1.963810220248e-02       2.488403220984e+04 
       1.976879538078e-02       2.485078564128e+04 
       1.989955456986e-02       2.481642850134e+04 
       2.003038098787e-02       2.478093519957e+04 
       2.016127588371e-02       2.474443625087e+04 
       2.029224053772e-02       2.470684379608e+04 
       2.042327626226e-02       2.466817393168e+04 
       2.055438440240e-02       2.462852256612e+04 
       2.068556633659e-02       2.458786979814e+04 
       2.081682347734e-02       2.454623985963e+04 
       2.094815727200e-02       2.450359585233e+04 
       2.107956920342e-02       2.446004287075e+04 
       2.121106079080e-02       2.441553519844e+04 
       2.134263359045e-02       2.437011484483e+04 
       2.147428919662e-02       2.432378899030e+04 
       2.160602924233e-02       2.427657904400e+04 
       2.173785540027e-02       2.422851045105e+04 
       2.186976938367e-02       2.417958086441e+04 
       2.200177294727e-02       2.412976593746e+04 
       2.213386788824e-02       2.407922571384e+04 
       2.226605604718e-02       2.402786695440e+04 
       2.239833930914e-02       2.397566679749e+04 
       2.253071960470e-02       2.392274598682e+04 
       2.266319891099e-02       2.386907297595e+04 
       2.279577925287e-02       2.381465395025e+04 
       2.292846270406e-02       2.375948222870e+04 
       2.306125138832e-02       2.370363190372e+04 
       2.319414748067e-02       2.364702201541e+04 
       2.332715320870e-02       2.358981202289e+04 
       2.346027085382e-02       2.353189671014e+04 
       2.359350275265e-02       2.347334699138e+04 
       2.372685129837e-02       2.341414601557e+04 
       2.386031894220e-02       2.335433760404e+04 
       2.399390819482e-02       2.329390037327e+04 
       2.412762162796e-02       2.323294554469e+04 
       2.426146187594e-02       2.317135246532e+04 
       2.439543163729e-02       2.310919547358e+04 
       2.452953367645e-02       2.304644632573e+04 
       2.466377082550e-02       2.298320713440e+04 
       2.479814598595e-02       2.291943880271e+04 
       2.493266213057e-02       2.285518853942e+04 
       2.506732230534e-02       2.279042025183e+04 
       2.520212963140e-02       2.272512966563e+04 
       2.533708730709e-02       2.265938695524e+04 
       2.547219861006e-02       2.259315767442e+04 
       2.560746689946e-02       2.252650720325e+04 
       2.574289561820e-02       2.245944778482e+04 
       2.587848829524e-02       2.239192261402e+04 
       2.601424854807e-02       2.232402808671e+04 
       2.615018008515e-02       2.225564265391e+04 
       2.628628670849e-02       2.218693568469e+04 
       2.642257231637e-02       2.211786712350e+04 
       2.655904090605e-02       2.204840390334e+04 
       2.669569657670e-02       2.197854639376e+04 
       2.683254353228e-02       2.190846282708e+04 
       2.696958608469e-02       2.183793004814e+04 
       2.710682865691e-02       2.176712676103e+04 
       2.724427578631e-02       2.169599809048e+04 
       2.738193212810e-02       2.162458646828e+04 
       2.751980245881e-02       2.155287979605e+04 
       2.765789168003e-02       2.148086113928e+04 
       2.779620482219e-02       2.140863699332e+04 
       2.793474704856e-02       2.133608224946e+04 
       2.807352365931e-02       2.126330150566e+04 
       2.821254009580e-02       2.119024409205e+04 
       2.835180194502e-02       2.111702956952e+04 
       2.849131494419e-02       2.104354861470e+04 
       2.863108498553e-02       2.096989337809e+04 
       2.877111812125e-02       2.089595034714e+04 
       2.891142056871e-02       2.082181085696e+04 
       2.905199871581e-02       2.074756132559e+04 
       2.919285912656e-02       2.067311980597e+04 
       2.933400854692e-02       2.059847662484e+04 
       2.947545391087e-02       2.052366787941e+04 
       2.961720234669e-02       2.044874658056e+04 
       2.975926118359e-02       2.037358837719e+04 
       2.990163795849e-02       2.029840249648e+04 
       3.004434042321e-02       2.022304980655e+04 
       3.018737655192e-02       2.014756812339e+04 
       3.033075454889e-02       2.007193727826e+04 
       3.047448285660e-02       1.999622412801e+04 
       3.061857016421e-02       1.992040897269e+04 
       3.076302541639e-02       1.984446485030e+04 
       3.090785782258e-02       1.976846230816e+04 
       3.105307686660e-02       1.969241259480e+04 
       3.119869231675e-02       1.961621639446e+04 
       3.134471423639e-02       1.954001018353e+04 
       3.149115299496e-02       1.946367327317e+04 
       3.163801927953e-02       1.938736676706e+04 
       3.178532410691e-02       1.931096479204e+04 
       3.193307883634e-02       1.923444870701e+04 
       3.208129518277e-02       1.915801816618e+04 
       3.222998523079e-02       1.908150605495e+04 
       3.237916144927e-02       1.900489632908e+04 
       3.252883670670e-02       1.892824322250e+04 
       3.267902428728e-02       1.885165169517e+04 
       3.282973790787e-02       1.877501431909e+04 
       3.298099173577e-02       1.869840103330e+04 
       3.313280040742e-02       1.862177118330e+04 
       3.328517904812e-02       1.854503427723e+04 
       3.343814329270e-02       1.846842572906e+04 
       3.359170930737e-02       1.839174871667e+04 
       3.374589381272e-02       1.831511501744e+04 
       3.390071410793e-02       1.823846625792e+04 
       3.405618809640e-02       1.816186289397e+04 
       3.421233431269e-02       1.808523152928e+04 
       3.436917195107e-02       1.800863044857e+04 
       3.452672089563e-02       1.793209313914e+04 
       3.468500175217e-02       1.785557354785e+04 
       3.484403588187e-02       1.777905626682e+04 
       3.500384543699e-02       1.770259298517e+04 
       3.516445339873e-02       1.762612941980e+04 
       3.532588361722e-02       1.754973587757e+04 
       3.548816085414e-02       1.747334260205e+04 
       3.565131082779e-02       1.739701299680e+04 
       3.581536026107e-02       1.732075310968e+04 
       3.598033693244e-02       1.724444053054e+04 
       3.614626973017e-02       1.716828216176e+04 
       3.631318871005e-02       1.709210667480e+04 
       3.648112515693e-02       1.701591034383e+04 
       3.665011165028e-02       1.693984026671e+04 
       3.682018213423e-02       1.686375589525e+04 
       3.699137199229e-02       1.678773510555e+04 
       3.716371812730e-02       1.671180366892e+04 
       3.733725904692e-02       1.663588531847e+04 
       3.751203495518e-02       1.656003206820e+04 
       3.768808785064e-02       1.648411206593e+04 
       3.786546163166e-02       1.640832001590e+04 
       3.804420220943e-02       1.633254686365e+04 
       3.822435762953e-02       1.625683415902e+04 
       3.840597820268e-02       1.618112510967e+04 
       3.858911664557e-02       1.610551198249e+04 
       3.877382823277e-02       1.602981722747e+04 
       3.896017096062e-02       1.595422541995e+04 
       3.914820572440e-02       1.587859729085e+04 
       3.933799651004e-02       1.580305787397e+04 
       3.952961060172e-02       1.572748634383e+04 
       3.972311880705e-02       1.565196238856e+04 
       3.991859570163e-02       1.557638630489e+04 
       4.011611989496e-02       1.550084946886e+04 
       4.031577431990e-02       1.542530768813e+04 
       4.051764654839e-02       1.534980839071e+04 
       4.072182913609e-02       1.527418858012e+04 
       4.092841999930e-02       1.519865922200e+04 
       4.113752282770e-02       1.512304926448e+04 
       4.134924753711e-02       1.504732503697e+04 
       4.156371076694e-02       1.497165043862e+04 
       4.178103642758e-02       1.489590298330e+04 
       4.200135630395e-02       1.482010805107e+04 
       4.222481072199e-02       1.474422950449e+04 
       4.245154928613e-02       1.466827091168e+04 
       4.268173169688e-02       1.459222518365e+04 
       4.291552865902e-02       1.451606982513e+04 
       4.315312289241e-02       1.443973022892e+04 
       4.339471025972e-02       1.436330411614e+04 
       4.364050102707e-02       1.428679195675e+04 
       4.389072127675e-02       1.421004510220e+04 
       4.414561449396e-02       1.413315388826e+04 
       4.440544335371e-02       1.405603791881e+04 
       4.467049173799e-02       1.397868081961e+04 
       4.494106701937e-02       1.390111134882e+04 
       4.521750265321e-02       1.382336557193e+04 
       4.550016112887e-02       1.374519918544e+04 
       4.578943733972e-02       1.366678397512e+04 
       4.608576244376e-02       1.358800105757e+04 
       4.638960830041e-02       1.350886466419e+04 
       4.670149258728e-02       1.342928419094e+04 
       4.702198472182e-02       1.334929756606e+04 
       4.735171274002e-02       1.326883774693e+04 
       4.769137131738e-02       1.318776814653e+04 
       4.804173115941e-02       1.310617469601e+04 
       4.840365004088e-02       1.302391939299e+04 
       4.877808583913e-02       1.294097287482e+04 
       4.916611198976e-02       1.285726981625e+04 
       4.956893589854e-02       1.277269398461e+04 
       4.998792097752e-02       1.268714535727e+04 
       5.042461314402e-02       1.260058630918e+04 
       5.088077283903e-02       1.251283852578e+04 
       5.135841389881e-02       1.242384643261e+04 
       5.185985096546e-02       1.233339521105e+04 
       5.238775756514e-02       1.224127208046e+04 
       5.294523753235e-02       1.214737502643e+04 
       5.353591312362e-02       1.205120174553e+04 
       5.416403393096e-02       1.195262685494e+04 
       5.483461151318e-02       1.185119974217e+04 
       5.555358534069e-02       1.174642928728e+04 
       5.632802580607e-02       1.163764674196e+04 
       5.716637886191e-02       1.152405650229e+04 
       5.807875265916e-02       1.140454024022e+04 
       5.907723624772e-02       1.127770928186e+04 
       6.017621842365e-02       1.114168441607e+04 
       6.139263230638e-02       1.099394165700e+04 
