# dimensionless total [l(l+1)/2pi] C_l's
# for l=2 to 5500, i.e. number of multipoles equal to 5499
#
# -> if you prefer output in CAMB/HealPix/LensPix units/order, set 'format' to 'camb' in input file
# -> if you don't want to see such a header, set 'headers' to 'no' in input file
# -> for CMB lensing (phi), these are C_l^phi-phi for the lensing potential.
#    Remember the conversion factors:
#    C_l^dd (deflection) = l(l+1) C_l^phi-phi
#    C_l^gg (shear/convergence) = 1/4 (l(l+1))^2 C_l^phi-phi
#
# 1:l     2:TT                     3:EE                     4:TE                     5:BB                     6:phiphi                 7:TPhi                   8:Ephi               
    2       2.856494527814e-10       7.946983602781e-15       5.666302672834e-13       4.884992890034e-15       8.378335286361e-09       4.684818295099e-10      -2.088007784987e-12 
    3       2.440655258008e-10       1.029652733529e-14       4.582090190016e-13       4.920414232648e-15       5.174940075616e-09       3.325411512484e-10      -1.672547760435e-12 
    4       2.250239571441e-10       9.854378234332e-15       3.918161662970e-13       4.279378698980e-15       3.597561958287e-09       2.519629660643e-10      -1.188872163359e-12 
    5       2.143446059322e-10       7.601630695309e-15       3.278902107788e-13       3.351705267372e-15       2.682666514007e-09       1.991118936878e-10      -7.568757540057e-13 
    6       2.073473290355e-10       4.997322741738e-15       2.646695810528e-13       2.430797584439e-15       2.094287640319e-09       1.621036351814e-10      -4.123573418577e-13 
    7       2.027886974624e-10       2.993369183859e-15       2.075890477172e-13       1.678306110412e-15       1.689284888884e-09       1.349373194183e-10      -1.642279224047e-13 
    8       1.998037582426e-10       1.839152197940e-15       1.602703693210e-13       1.148372389227e-15       1.396009907458e-09       1.142718367785e-10      -6.227302524019e-15 
    9       1.979573947595e-10       1.339919938555e-15       1.243737581342e-13       8.291480661908e-16       1.175560282521e-09       9.815928027763e-11       7.644608334177e-14 
   10       1.969157296902e-10       1.189298241525e-15       9.986675208567e-14       6.778707947594e-16       1.004930511474e-09       8.535781545235e-11       1.028084334778e-13 
   11       1.963991940421e-10       1.169077125463e-15       8.544855983067e-14       6.458056252694e-16       8.472238184730e-10       7.526183133123e-11       9.253588010625e-14 
   12       1.963279303238e-10       1.190748556599e-15       7.891627272806e-14       6.899471647272e-16       7.402212960576e-10       6.664126142648e-11       6.357111542834e-14 
   13       1.965414449314e-10       1.243999392470e-15       7.773113809651e-14       7.792910402685e-16       6.523908333976e-10       5.941330334095e-11       2.930881177465e-14 
   14       1.969602154035e-10       1.338420052766e-15       7.961788223714e-14       8.930844042803e-16       5.793125057214e-10       5.328870374094e-11      -1.008451632949e-15 
   15       1.975779736561e-10       1.472668777627e-15       8.274496829658e-14       1.020137914255e-15       5.178061657132e-10       4.812522077727e-11      -2.239780910974e-14 
   16       1.983265333803e-10       1.636243503863e-15       8.583253224538e-14       1.154590751939e-15       4.655155523279e-10       4.370584791480e-11      -3.364398792213e-14 
   17       1.991956370414e-10       1.819828070503e-15       8.820502353340e-14       1.293907211786e-15       4.206604239877e-10       3.981287578660e-11      -3.613953662889e-14 
   18       2.001437547524e-10       2.021244624872e-15       8.966180948784e-14       1.437594822557e-15       3.817287579259e-10       3.639484073868e-11      -3.248223458658e-14 
   19       2.011890622715e-10       2.244508655867e-15       9.037936415226e-14       1.585392277848e-15       3.481033182846e-10       3.340894758305e-11      -2.527080587353e-14 
   20       2.022738409202e-10       2.494910235195e-15       9.067061951966e-14       1.737120588312e-15       3.184891630133e-10       3.072970649746e-11      -1.759673878686e-14 
   21       2.034173758691e-10       2.774210175194e-15       9.075765417852e-14       1.892726548938e-15       2.924210717171e-10       2.835563557085e-11      -1.111330037937e-14 
   22       2.046066012337e-10       3.082304685751e-15       9.082105570536e-14       2.052261592921e-15       2.692748859074e-10       2.628215498474e-11      -6.942910427804e-15 
   23       2.058488509214e-10       3.418008378810e-15       9.090122045222e-14       2.215596909682e-15       2.487320235945e-10       2.445816681377e-11      -5.177878773737e-15 
   24       2.071185112729e-10       3.779523706044e-15       9.093265191901e-14       2.382565260134e-15       2.303173351915e-10       2.279431468582e-11      -5.406716470780e-15 
   25       2.084184084870e-10       4.166799538572e-15       9.066809399770e-14       2.552922580572e-15       2.138143702544e-10       2.126263406711e-11      -7.043566934755e-15 
   26       2.097343902038e-10       4.580204443447e-15       8.976800022954e-14       2.726426852113e-15       1.989247554594e-10       1.984572574525e-11      -9.309254585462e-15 
   27       2.110790173005e-10       5.020105214333e-15       8.799309552284e-14       2.902911519363e-15       1.854701038764e-10       1.856040105426e-11      -1.147781834068e-14 
   28       2.124539436319e-10       5.486890702584e-15       8.512977732230e-14       3.082235857482e-15       1.732186045526e-10       1.742139103894e-11      -1.286404151299e-14 
   29       2.138708058748e-10       5.981443240231e-15       8.105843344009e-14       3.264171368719e-15       1.621074763976e-10       1.641280719568e-11      -1.337655924507e-14 
   30       2.153196324808e-10       6.504830352179e-15       7.568542725589e-14       3.448464810705e-15       1.520170061216e-10       1.549368900239e-11      -1.314831127530e-14 
   31       2.167711560437e-10       7.058150798465e-15       6.894117898218e-14       3.634869128004e-15       1.427409765974e-10       1.461608838891e-11      -1.237233458606e-14 
   32       2.182360608581e-10       7.642439543492e-15       6.087283729159e-14       3.823160067319e-15       1.342315648357e-10       1.378313145277e-11      -1.125659616381e-14 
   33       2.197231157623e-10       8.258728890926e-15       5.159033220669e-14       4.013126658975e-15       1.264288668722e-10       1.301143434836e-11      -1.006151085528e-14 
   34       2.212274369090e-10       8.908015054127e-15       4.120841266107e-14       4.204558883894e-15       1.192239616324e-10       1.231237860384e-11      -9.057956208402e-15 
   35       2.227513336569e-10       9.591055740105e-15       2.971807233236e-14       4.397217569245e-15       1.125799546773e-10       1.168038859092e-11      -8.323094849566e-15 
   36       2.242874502486e-10       1.030849501736e-14       1.707052850643e-14       4.590853926982e-15       1.064434233324e-10       1.109954925662e-11      -7.874363478735e-15 
   37       2.258213026226e-10       1.106091320013e-14       3.212183005469e-15       4.785214432711e-15       1.007343790888e-10       1.055168409766e-11      -7.709200450706e-15 
   38       2.273649522111e-10       1.184883357517e-14      -1.190922404652e-14       4.980031165246e-15       9.543804918983e-11       1.003578750626e-11      -7.759353818084e-15 
   39       2.289323609677e-10       1.267270899022e-14      -2.834973439319e-14       5.175027615959e-15       9.053763891398e-11       9.554409497748e-12      -7.918999875911e-15 
   40       2.305291678920e-10       1.353291342235e-14      -4.617150391315e-14       5.369920672635e-15       8.598641732857e-11       9.108212698024e-12      -8.054609298604e-15 
   41       2.321544520830e-10       1.442978989412e-14      -6.543454967740e-14       5.564430975818e-15       8.172399548947e-11       8.696022482586e-12      -8.040705564261e-15 
   42       2.338089866544e-10       1.536382542239e-14      -8.616747962304e-14       5.758319165613e-15       7.773781149239e-11       8.315449712723e-12      -7.885558643416e-15 
   43       2.354880792169e-10       1.633552431082e-14      -1.083881308539e-13       5.951360648089e-15       7.401726572602e-11       7.962153762166e-12      -7.643315209937e-15 
   44       2.371783485101e-10       1.734535847671e-14      -1.321114627055e-13       6.143336062014e-15       7.053527019282e-11       7.629452774653e-12      -7.380666854847e-15 
   45       2.388645407317e-10       1.839374007389e-14      -1.573472479822e-13       6.334017768836e-15       6.725792039725e-11       7.310331512458e-12      -7.162911091518e-15 
   46       2.405542000419e-10       1.948093322321e-14      -1.840924970403e-13       6.523123860805e-15       6.418005190487e-11       7.004585662560e-12      -7.005401098360e-15 
   47       2.422590804070e-10       2.060711327837e-14      -2.123366435931e-13       6.710350868983e-15       6.129808125314e-11       6.713521083225e-12      -6.908854660667e-15 
   48       2.439878938918e-10       2.177238742834e-14      -2.420633861532e-13       6.895385847008e-15       5.859928224801e-11       6.437914427305e-12      -6.872686806324e-15 
   49       2.457459867826e-10       2.297679167215e-14      -2.732504856996e-13       7.077905851154e-15       5.606110610729e-11       6.177966829081e-12      -6.894912476678e-15 
   50       2.475358035628e-10       2.422026701830e-14      -3.058763283869e-13       7.257600960420e-15       5.365797103545e-11       5.933399032204e-12      -6.971549171188e-15 
   51       2.493591787045e-10       2.550258748517e-14      -3.399421831570e-13       7.434251909523e-15       5.138538087930e-11       5.703874660987e-12      -7.094859531307e-15 
   52       2.512151071170e-10       2.682340732792e-14      -3.754556359580e-13       7.607672629749e-15       4.924117803488e-11       5.488611786187e-12      -7.254463486482e-15 
   53       2.530987306670e-10       2.818227619783e-14      -4.124244660087e-13       7.777689124560e-15       4.721832564156e-11       5.286212809284e-12      -7.437678595008e-15 
   54       2.550010513777e-10       2.957863513941e-14      -4.508567618193e-13       7.944140057411e-15       4.530457922801e-11       5.094624805378e-12      -7.629399184245e-15 
   55       2.569128328711e-10       3.101190971146e-14      -4.907587928897e-13       8.106870531328e-15       4.348622017705e-11       4.911706123974e-12      -7.815410377024e-15 
   56       2.588380966955e-10       3.248182560979e-14      -5.321277398680e-13       8.265710271391e-15       4.176109444799e-11       4.737181871482e-12      -7.993571130042e-15 
   57       2.607834764207e-10       3.398816444064e-14      -5.749573616278e-13       8.420491051931e-15       4.012823781506e-11       4.571104750015e-12      -8.165197606878e-15 
   58       2.627542022107e-10       3.553067325229e-14      -6.192401093200e-13       8.571053345461e-15       3.858393143979e-11       4.413275673290e-12      -8.331884377330e-15 
   59       2.647539772014e-10       3.710906431627e-14      -6.649671549531e-13       8.717246645252e-15       3.712153176968e-11       4.263227729956e-12      -8.495517384362e-15 
   60       2.667848538769e-10       3.872301490854e-14      -7.121284199733e-13       8.858929787891e-15       3.573130043693e-11       4.120210146927e-12      -8.658286911062e-15 
   61       2.688479705888e-10       4.037212798828e-14      -7.607131312782e-13       8.995974103338e-15       3.440310734407e-11       3.983418520037e-12      -8.821734144950e-15 
   62       2.709462339713e-10       4.205580441556e-14      -8.107115704397e-13       9.128272961580e-15       3.313563374600e-11       3.852782174032e-12      -8.983611454367e-15 
   63       2.730820219915e-10       4.377334153270e-14      -8.621137696160e-13       9.255734950979e-15       3.192894245188e-11       3.728325880931e-12      -9.140337170227e-15 
   64       2.752562825142e-10       4.552396830511e-14      -9.149090631825e-13       9.378281643991e-15       3.078170954847e-11       3.609931127886e-12      -9.287882454882e-15 
   65       2.774684369698e-10       4.730684386178e-14      -9.690861330465e-13       9.495848009449e-15       2.969114546290e-11       3.497327894396e-12      -9.421753605847e-15 
   66       2.797162840234e-10       4.912105603571e-14      -1.024633053963e-12       9.608382824840e-15       2.865291602549e-11       3.390086429508e-12      -9.536974359526e-15 
   67       2.819959032432e-10       5.096561990449e-14      -1.081537338850e-12       9.715849088590e-15       2.766106353247e-11       3.287609029029e-12      -9.628068194941e-15 
   68       2.843034268457e-10       5.283948418121e-14      -1.139784499073e-12       9.818213473980e-15       2.670959687401e-11       3.189288854550e-12      -9.690392683889e-15 
   69       2.866409871427e-10       5.474155515364e-14      -1.199353285248e-12       9.915411287892e-15       2.579781251402e-11       3.095042140062e-12      -9.724496062536e-15 
   70       2.890118066867e-10       5.667067499616e-14      -1.260219559076e-12       1.000737511980e-14       2.492591482849e-11       3.004869548114e-12      -9.732615681489e-15 
   71       2.914183891376e-10       5.862561311224e-14      -1.322357700252e-12       1.009404530155e-14       2.409340683604e-11       2.918694789746e-12      -9.717420645466e-15 
   72       2.938624707080e-10       6.060506487573e-14      -1.385740613800e-12       1.017537003938e-14       2.329905394779e-11       2.836360673874e-12      -9.682028696214e-15 
   73       2.963449716086e-10       6.260765037216e-14      -1.450339737410e-12       1.025130554594e-14       2.254084771722e-11       2.757625156657e-12      -9.630023095431e-15 
   74       2.988659474937e-10       6.463191313992e-14      -1.516125048767e-12       1.032181617229e-14       2.181596959002e-11       2.682157390879e-12      -9.565469507681e-15 
   75       3.014245409067e-10       6.667631891162e-14      -1.583065072895e-12       1.038687453996e-14       2.112075465396e-11       2.609533775326e-12      -9.492932883321e-15 
   76       3.040197952098e-10       6.873931555016e-14      -1.651127463653e-12       1.044646174608e-14       2.045160080567e-11       2.539344409831e-12      -9.416600910838e-15 
   77       3.066533750586e-10       7.081952825769e-14      -1.720280854472e-12       1.050056773043e-14       1.980796778644e-11       2.471543604982e-12      -9.337432517397e-15 
   78       3.093272561104e-10       7.291559784247e-14      -1.790493360000e-12       1.054919121550e-14       1.918986171669e-11       2.406156409023e-12      -9.255517640622e-15 
   79       3.120428761805e-10       7.502612267820e-14      -1.861732050681e-12       1.059233977063e-14       1.859692160499e-11       2.343172213147e-12      -9.170923114936e-15 
   80       3.148011043737e-10       7.714965870009e-14      -1.933962971856e-12       1.063002994547e-14       1.802840248436e-11       2.282543064824e-12      -9.083691233963e-15 
   81       3.176022102154e-10       7.928471940104e-14      -2.007151162878e-12       1.066228740355e-14       1.748315854873e-11       2.224181981140e-12      -8.993838312931e-15 
   82       3.204458327835e-10       8.142977582769e-14      -2.081260676214e-12       1.068914705578e-14       1.695962628935e-11       2.167961262127e-12      -8.901353251074e-15 
   83       3.233309498391e-10       8.358325657661e-14      -2.156254596561e-12       1.071065319396e-14       1.645580763114e-11       2.113710804100e-12      -8.806196094033e-15 
   84       3.262564954381e-10       8.574354065573e-14      -2.232094149387e-12       1.072685505777e-14       1.596975520420e-11       2.061262377865e-12      -8.708380946856e-15 
   85       3.292233980204e-10       8.790893471772e-14      -2.308735814914e-12       1.073779239894e-14       1.550115753026e-11       2.010594591895e-12      -8.608243654988e-15 
   86       3.322328251673e-10       9.007769202771e-14      -2.386133768507e-12       1.074350775756e-14       1.504998692979e-11       1.961708980294e-12      -8.506216069677e-15 
   87       3.352855454874e-10       9.224801914044e-14      -2.464240752446e-12       1.074405087182e-14       1.461601245189e-11       1.914585273955e-12      -8.402745623252e-15 
   88       3.383819086464e-10       9.441807577640e-14      -2.543008079731e-12       1.073947873473e-14       1.419879144981e-11       1.869180486411e-12      -8.298295309177e-15 
   89       3.415218253976e-10       9.658597469805e-14      -2.622385637888e-12       1.072985565093e-14       1.379766115671e-11       1.825427999689e-12      -8.193343662112e-15 
   90       3.447047476117e-10       9.874978158609e-14      -2.702321892773e-12       1.071525329343e-14       1.341173026123e-11       1.783236650163e-12      -8.088384737973e-15 
   91       3.479296483075e-10       1.009075149156e-13      -2.782763892379e-12       1.069575076038e-14       1.303987048316e-11       1.742489814406e-12      -7.983928093989e-15 
   92       3.511950016817e-10       1.030571458322e-13      -2.863657270639e-12       1.067143463186e-14       1.268070814909e-11       1.703044495043e-12      -7.880498768763e-15 
   93       3.544993672424e-10       1.051966500765e-13      -2.944947190087e-12       1.064239479637e-14       1.233294986094e-11       1.664765988412e-12      -7.778590225688e-15 
   94       3.578432860800e-10       1.073241729589e-13      -3.026581323744e-12       1.060871108908e-14       1.199643382860e-11       1.627639837422e-12      -7.678515130760e-15 
   95       3.612276342010e-10       1.094378890835e-13      -3.108507330830e-12       1.057046473961e-14       1.167122181777e-11       1.591675104596e-12      -7.580531990440e-15 
   96       3.646530323146e-10       1.115359530938e-13      -3.190671974339e-12       1.052774242190e-14       1.135727535898e-11       1.556869870517e-12      -7.484889531894e-15 
   97       3.681198341564e-10       1.136165002628e-13      -3.273021137731e-12       1.048063625294e-14       1.105445190933e-11       1.523210808109e-12      -7.391826037382e-15 
   98       3.716281148103e-10       1.156776470843e-13      -3.355499841626e-12       1.042924379145e-14       1.076250101416e-11       1.490672756916e-12      -7.301568678662e-15 
   99       3.751776590313e-10       1.177174918631e-13      -3.438052260496e-12       1.037366803662e-14       1.048106046870e-11       1.459218297382e-12      -7.214332851377e-15 
  100       3.787679495683e-10       1.197341153062e-13      -3.520621739356e-12       1.031401742675e-14       1.020965247978e-11       1.428797325124e-12      -7.130321509452e-15 
  101       3.823981554864e-10       1.217255811128e-13      -3.603150810460e-12       1.025040583799e-14       9.947679827542e-12       1.399346625217e-12      -7.049724499491e-15 
  102       3.860671204898e-10       1.236899365653e-13      -3.685581209991e-12       1.018295258305e-14       9.694422027046e-12       1.370789446471e-12      -6.972717895169e-15 
  103       3.897733512443e-10       1.256252131200e-13      -3.767853894754e-12       1.011178240986e-14       9.449031490019e-12       1.343035075706e-12      -6.899463331628e-15 
  104       3.935154206671e-10       1.275294665795e-13      -3.849908975596e-12       1.003702097484e-14       9.210725520747e-12       1.315999970381e-12      -6.830042804592e-15 
  105       3.972932649936e-10       1.294009025173e-13      -3.931685471450e-12       9.958780568821e-15       8.979400108800e-12       1.289675324582e-12      -6.764254470412e-15 
  106       4.011070409711e-10       1.312377689762e-13      -4.013121553029e-12       9.877172451522e-15       8.755092281029e-12       1.264067879035e-12      -6.701787892295e-15 
  107       4.049567195066e-10       1.330383194129e-13      -4.094154638726e-12       9.792311154376e-15       8.537790005529e-12       1.239178991269e-12      -6.642284754125e-15 
