# dimensionless total [l(l+1)/2pi] C_l's
# for l=2 to 5500, i.e. number of multipoles equal to 5499
#
# -> if you prefer output in CAMB/HealPix/LensPix units/order, set 'format' to 'camb' in input file
# -> if you don't want to see such a header, set 'headers' to 'no' in input file
# -> for CMB lensing (phi), these are C_l^phi-phi for the lensing potential.
#    Remember the conversion factors:
#    C_l^dd (deflection) = l(l+1) C_l^phi-phi
#    C_l^gg (shear/convergence) = 1/4 (l(l+1))^2 C_l^phi-phi
#
# 1:l     2:TT                     3:EE                     4:TE                     5:BB                     6:phiphi                 7:TPhi                   8:Ephi               
    2       2.907307706954e-10       8.047286369180e-15       5.800949389629e-13       4.759174372335e-15       8.560810104879e-09       4.828396861496e-10      -2.174831730319e-12 
    3       2.493489096806e-10       1.044801821226e-14       4.777791745435e-13       4.799444878946e-15       5.317928264096e-09       3.425726777291e-10      -1.736056844186e-12 
    4       2.299302266568e-10       9.991470861185e-15       4.105907041816e-13       4.178046768086e-15       3.698942489569e-09       2.591857631989e-10      -1.231284140417e-12 
    5       2.189294662596e-10       7.696923615173e-15       3.440139869463e-13       3.275397532827e-15       2.758246255712e-09       2.045938460855e-10      -7.825609712623e-13 
    6       2.116777582398e-10       5.052202344393e-15       2.777493774806e-13       2.378342291873e-15       2.150845479010e-09       1.663893141182e-10      -4.257423133981e-13 
    7       2.069117651626e-10       3.022961700426e-15       2.179179640508e-13       1.645325572775e-15       1.731784430785e-09       1.383336632137e-10      -1.693586394323e-13 
    8       2.037654524066e-10       1.858031477255e-15       1.684251564522e-13       1.129634406535e-15       1.429310851534e-09       1.170301107220e-10      -6.454925378348e-15 
    9       2.017953718291e-10       1.356287351338e-15       1.309890685906e-13       8.198117521125e-16       1.202938933037e-09       1.004827905641e-10       7.859435347731e-14 
   10       2.006691929275e-10       1.205322088370e-15       1.054805984228e-13       6.743673055565e-16       1.028050857982e-09       8.735359477188e-11       1.056223656573e-13 
   11       2.000717214771e-10       1.184450013351e-15       9.047840086296e-14       6.454944781631e-16       8.656598486591e-10       7.697947996202e-11       9.501194014180e-14 
   12       1.999251472481e-10       1.204741520621e-15       8.367857518002e-14       6.914497083065e-16       7.559679492896e-10       6.813075934793e-11       6.526045825453e-14 
   13       2.000846664079e-10       1.256980735809e-15       8.248198748628e-14       7.816716961345e-16       6.659744016103e-10       6.068832462390e-11       3.003677997634e-14 
   14       2.004723094572e-10       1.351181225718e-15       8.449122120454e-14       8.960560619493e-16       5.911305997324e-10       5.444545400570e-11      -1.045330802162e-15 
   15       2.010577996907e-10       1.486351599577e-15       8.775051791477e-14       1.023461163335e-15       5.281665029059e-10       4.917345642245e-11      -2.294274004767e-14 
   16       2.017575074239e-10       1.651572832782e-15       9.103189215723e-14       1.158395876390e-15       4.746585156769e-10       4.463655962736e-11      -3.442970388729e-14 
   17       2.026233784456e-10       1.837560812151e-15       9.366144668375e-14       1.298102592501e-15       4.287758857621e-10       4.059457296832e-11      -3.702734210450e-14 
   18       2.035566389400e-10       2.041891233379e-15       9.535984141428e-14       1.442238458844e-15       3.889663727993e-10       3.708078590771e-11      -3.328101065617e-14 
   19       2.045744729095e-10       2.268579719534e-15       9.629282788743e-14       1.590586121793e-15       3.545955593878e-10       3.404825177776e-11      -2.583982192725e-14 
   20       2.056469003400e-10       2.523031864159e-15       9.679371968231e-14       1.742908611657e-15       3.243345539495e-10       3.132222812572e-11      -1.792290244491e-14 
   21       2.067848689442e-10       2.807027419296e-15       9.711461145702e-14       1.899105264314e-15       2.977052422305e-10       2.889328767118e-11      -1.126352885718e-14 
   22       2.079563470212e-10       3.120426688489e-15       9.745770252793e-14       2.059190269433e-15       2.740678129460e-10       2.676388691189e-11      -7.039710272010e-15 
   23       2.091801695842e-10       3.461969367846e-15       9.780834973961e-14       2.223065409413e-15       2.530951620456e-10       2.489468701293e-11      -5.313195909661e-15 
   24       2.104492733226e-10       3.829781626046e-15       9.803022315001e-14       2.390623895646e-15       2.343003276029e-10       2.320651006744e-11      -5.609331483950e-15 
   25       2.117599697966e-10       4.223883599831e-15       9.791101336598e-14       2.561673604825e-15       2.174610712859e-10       2.165937696868e-11      -7.317458945300e-15 
   26       2.130834736691e-10       4.644753259693e-15       9.717375300569e-14       2.736002033353e-15       2.022716812975e-10       2.021775835048e-11      -9.643411103731e-15 
   27       2.144307369737e-10       5.092758652913e-15       9.556502543374e-14       2.913352787860e-15       1.885494598012e-10       1.889989858172e-11      -1.184800926377e-14 
   28       2.158056649861e-10       5.568250196910e-15       9.283494900893e-14       3.093467614004e-15       1.760573246768e-10       1.772808255128e-11      -1.323670818074e-14 
   29       2.172217435042e-10       6.072080009129e-15       8.886033091471e-14       3.276127355609e-15       1.647307115692e-10       1.668969338676e-11      -1.372995916395e-14 
   30       2.186706501665e-10       6.605279556105e-15       8.355540609549e-14       3.461138725324e-15       1.544469353358e-10       1.574597335694e-11      -1.348334690702e-14 
   31       2.201245164202e-10       7.168930071274e-15       7.685789482220e-14       3.648313530719e-15       1.449950570703e-10       1.485074638222e-11      -1.271036868265e-14 
   32       2.215947444705e-10       7.764174697468e-15       6.881019950345e-14       3.837413053680e-15       1.363260217748e-10       1.400601893716e-11      -1.160596879631e-14 
   33       2.230903270983e-10       8.392215983872e-15       5.951246577820e-14       4.028183201426e-15       1.283785658869e-10       1.322584172298e-11      -1.040314689663e-14 
   34       2.246061394232e-10       9.054196424915e-15       4.906985045215e-14       4.220373934255e-15       1.210414464550e-10       1.251875684033e-11      -9.349557246084e-15 
   35       2.261436791276e-10       9.750783981529e-15       3.747243630496e-14       4.413757421614e-15       1.142768587278e-10       1.187818745324e-11      -8.541523322472e-15 
   36       2.276941868553e-10       1.048243174905e-14       2.467369939383e-14       4.608116608611e-15       1.080301488141e-10       1.128763808639e-11      -8.033735166775e-15 
   37       2.292416782028e-10       1.124953522822e-14       1.062446996064e-14       4.803230547655e-15       1.022195924811e-10       1.072846039350e-11      -7.858542099336e-15 
   38       2.307984048480e-10       1.205262732225e-14      -4.716896004000e-15       4.998839273279e-15       9.683001372164e-11       1.020016009395e-11      -7.942624975994e-15 
   39       2.323789713083e-10       1.289223839878e-14      -2.139210805271e-14       5.194666949896e-15       9.184420880332e-11       9.706201690149e-12      -8.160282894006e-15 
   40       2.339896213901e-10       1.376883917692e-14      -3.944614004272e-14       5.390430609394e-15       8.721447897940e-11       9.248345149318e-12      -8.352936864710e-15 
   41       2.356298146603e-10       1.468287843501e-14      -5.892608082627e-14       5.585847303186e-15       8.287921700929e-11       8.826430884669e-12      -8.371124867565e-15 
   42       2.372998695511e-10       1.563492009451e-14      -7.987634148931e-14       5.780659606890e-15       7.882555288899e-11       8.438077409535e-12      -8.222167305898e-15 
   43       2.389942004252e-10       1.662554432166e-14      -1.023425144603e-13       5.974617544215e-15       7.504262574329e-11       8.078586361514e-12      -7.966903768220e-15 
   44       2.406982335330e-10       1.765530889223e-14      -1.263730231787e-13       6.167471640142e-15       7.150278666753e-11       7.740794570235e-12      -7.680509799911e-15 
   45       2.423956834737e-10       1.872468048568e-14      -1.520077280269e-13       6.358968545368e-15       6.817145128385e-11       7.417185801051e-12      -7.437012160285e-15 
   46       2.440948182623e-10       1.983380642537e-14      -1.792390598024e-13       6.548836332723e-15       6.504331772727e-11       7.107403254441e-12      -7.255287163300e-15 
   47       2.458087171416e-10       2.098267299989e-14      -2.080397158722e-13       6.736794817230e-15       6.211470415844e-11       6.812676641293e-12      -7.138381177784e-15 
   48       2.475475851459e-10       2.217116247613e-14      -2.383729127804e-13       6.922559318419e-15       5.937262691858e-11       6.533678450087e-12      -7.088374939597e-15 
   49       2.493184356797e-10       2.339904820180e-14      -2.701919789104e-13       7.105840415130e-15       5.679410907665e-11       6.270475831348e-12      -7.106302415525e-15 
   50       2.511250946470e-10       2.466604949912e-14      -3.034519502787e-13       7.286356836370e-15       5.435308988855e-11       6.022666208712e-12      -7.190230849188e-15 
   51       2.529689505808e-10       2.597202527375e-14      -3.381490135953e-13       7.463878827812e-15       5.204496837211e-11       5.789939135731e-12      -7.329074749251e-15 
   52       2.548478594448e-10       2.731682449327e-14      -3.742910654678e-13       7.638196132809e-15       4.986752658956e-11       5.571583778072e-12      -7.506962529505e-15 
   53       2.567555457592e-10       2.870022895492e-14      -4.118867987925e-13       7.809106249283e-15       4.781358516127e-11       5.366279983145e-12      -7.704764879321e-15 
   54       2.586813003114e-10       3.012195120181e-14      -4.509458602700e-13       7.976414802700e-15       4.587066950288e-11       5.172058810514e-12      -7.899927094931e-15 
   55       2.606143079090e-10       3.158165896462e-14      -4.914779238998e-13       8.139937735165e-15       4.402480753315e-11       4.986843332779e-12      -8.072002334112e-15 
   56       2.625585821447e-10       3.307906037039e-14      -5.334892810822e-13       8.299507655075e-15       4.227379220537e-11       4.810318783368e-12      -8.221245168110e-15 
   57       2.645212112628e-10       3.461383625159e-14      -5.769856793256e-13       8.454969718147e-15       4.061662906172e-11       4.642457859518e-12      -8.354343382255e-15 
   58       2.665079339283e-10       3.618561444778e-14      -6.219734448207e-13       8.606180383568e-15       3.904952438846e-11       4.482964661244e-12      -8.479175004655e-15 
   59       2.685230173277e-10       3.779396875541e-14      -6.684595977224e-13       8.753007857719e-15       3.756571241961e-11       4.331257829695e-12      -8.604862751377e-15 
   60       2.705691352706e-10       3.943841787745e-14      -7.164519674295e-13       8.895332537913e-15       3.615528254043e-11       4.186453685498e-12      -8.741828471627e-15 
   61       2.726480052525e-10       4.111841422270e-14      -7.659546571336e-13       9.033044962243e-15       3.480792707141e-11       4.047630039671e-12      -8.898712697345e-15 
   62       2.747627425121e-10       4.283330974179e-14      -8.169529870369e-13       9.166038117560e-15       3.352229626661e-11       3.914724968678e-12      -9.072202133922e-15 
   63       2.769158204608e-10       4.458238052403e-14      -8.694253606647e-13       9.294214184488e-15       3.229844607105e-11       3.787810775898e-12      -9.255005063143e-15 
   64       2.791082624678e-10       4.636483492597e-14      -9.233475857272e-13       9.417487236322e-15       3.113502429188e-11       3.666823322430e-12      -9.438740622556e-15 
   65       2.813395440426e-10       4.817981219903e-14      -9.786928418354e-13       9.535783603632e-15       3.002919046978e-11       3.551554070969e-12      -9.613893782786e-15 
   66       2.836074950179e-10       5.002638111714e-14      -1.035431648219e-12       9.649042238859e-15       2.897653575031e-11       3.441642129686e-12      -9.769770324851e-15 
   67       2.859082017320e-10       5.190353860437e-14      -1.093531831440e-12       9.757215080918e-15       2.797100275533e-11       3.336566296109e-12      -9.894451817473e-15 
   68       2.882377802092e-10       5.381021781688e-14      -1.152961301018e-12       9.860258681264e-15       2.700650061243e-11       3.235790040137e-12      -9.977645448130e-15 
   69       2.905983315704e-10       5.574531735797e-14      -1.213697101540e-12       9.958106296758e-15       2.608230916116e-11       3.139248351014e-12      -1.002000470361e-14 
   70       2.929930231668e-10       5.770767554460e-14      -1.275718145176e-12       1.005069077108e-14       2.519863086606e-11       3.046945698903e-12      -1.002562510148e-14 
   71       2.954242752823e-10       5.969606036654e-14      -1.339002604886e-12       1.013795291153e-14       2.435495643187e-11       2.958807851960e-12      -9.999344934462e-15 
   72       2.978937111677e-10       6.170916835584e-14      -1.403527953950e-12       1.021984163011e-14       2.355002802933e-11       2.874677831694e-12      -9.946774284967e-15 
   73       3.004021070748e-10       6.374562345622e-14      -1.469271005496e-12       1.029631408466e-14       2.278180252102e-11       2.794311868340e-12      -9.874324039567e-15 
   74       3.029493422910e-10       6.580397589256e-14      -1.536207952033e-12       1.036733581996e-14       2.204741468719e-11       2.717375356219e-12      -9.789234903498e-15 
   75       3.055343491731e-10       6.788270104027e-14      -1.604314404977e-12       1.043288090882e-14       2.134314045152e-11       2.643438809109e-12      -9.699606415147e-15 
   76       3.081559736566e-10       6.998024647655e-14      -1.673564334575e-12       1.049293192476e-14       2.066531985725e-11       2.572084004660e-12      -9.612670704943e-15 
   77       3.108158483923e-10       7.209518553855e-14      -1.743926579095e-12       1.054747954225e-14       2.001340159638e-11       2.503253704631e-12      -9.529186215524e-15 
   78       3.135159551964e-10       7.422608984338e-14      -1.815367767930e-12       1.059652311962e-14       1.938738943318e-11       2.436958655832e-12      -9.448069613116e-15 
   79       3.162577302661e-10       7.637148345021e-14      -1.887853381441e-12       1.064007099641e-14       1.878691488930e-11       2.373171302401e-12      -9.368053482475e-15 
   80       3.190420328842e-10       7.852984271776e-14      -1.961347767942e-12       1.067814063111e-14       1.821122015014e-11       2.311824000685e-12      -9.287679348438e-15 
   81       3.218691141231e-10       8.069959616172e-14      -2.035814160679e-12       1.071075873873e-14       1.765914097103e-11       2.252807234121e-12      -9.205290697483e-15 
   82       3.247385855491e-10       8.287912431218e-14      -2.111214694811e-12       1.073796142850e-14       1.712908958353e-11       2.195967828121e-12      -9.119025999287e-15 
   83       3.276493879265e-10       8.506675957106e-14      -2.187510424395e-12       1.075979434154e-14       1.661903760175e-11       2.141107164947e-12      -9.026811728276e-15 
   84       3.306004325619e-10       8.726079291921e-14      -2.264660518297e-12       1.077630783296e-14       1.612700817703e-11       2.088031887953e-12      -8.926955119411e-15 
   85       3.335927160490e-10       8.945949562732e-14      -2.342619657575e-12       1.078754129920e-14       1.565268364938e-11       2.036719582501e-12      -8.820050627513e-15 
   86       3.366275003543e-10       9.166110089958e-14      -2.421340235769e-12       1.079353649281e-14       1.519603430928e-11       1.987177416208e-12      -8.707378193354e-15 
   87       3.397056516517e-10       9.386379731698e-14      -2.500773144740e-12       1.079434230053e-14       1.475682443627e-11       1.939391202031e-12      -8.590334665348e-15 
   88       3.428276203319e-10       9.606572880994e-14      -2.580867777849e-12       1.079001479761e-14       1.433460376399e-11       1.893324495324e-12      -8.470436900674e-15 
   89       3.459934210110e-10       9.826499463083e-14      -2.661572033147e-12       1.078061730225e-14       1.392869894527e-11       1.848917690894e-12      -8.349324866400e-15 
   90       3.492026125403e-10       1.004596493265e-13      -2.742832316548e-12       1.076622042991e-14       1.353820501720e-11       1.806087120054e-12      -8.228764740604e-15 
   91       3.524542780149e-10       1.026477027109e-13      -2.824593545019e-12       1.074690214770e-14       1.316197686622e-11       1.764724147682e-12      -8.110652013496e-15 
   92       3.557470047829e-10       1.048271198377e-13      -2.906799149756e-12       1.072274782874e-14       1.279862069313e-11       1.724694269276e-12      -7.997014588547e-15 
   93       3.590794422822e-10       1.069958672069e-13      -2.989392205033e-12       1.069384630841e-14       1.244682416704e-11       1.685869923931e-12      -7.889603600526e-15 
   94       3.624521149439e-10       1.091520593952e-13      -3.072319002036e-12       1.066027725649e-14       1.210642222595e-11       1.648236539770e-12      -7.788588736972e-15 
   95       3.658658462572e-10       1.112938345308e-13      -3.155526020919e-12       1.062212199742e-14       1.177747653825e-11       1.611800842511e-12      -7.693671513605e-15 
   96       3.693211933388e-10       1.134193106231e-13      -3.238958871414e-12       1.057946733878e-14       1.145994726291e-11       1.576558126423e-12      -7.604477549551e-15 
   97       3.728184348739e-10       1.155265861702e-13      -3.322562311469e-12       1.053240557073e-14       1.115368916371e-11       1.542491814190e-12      -7.520554009117e-15 
   98       3.763575590570e-10       1.176137407656e-13      -3.406280265879e-12       1.048103446551e-14       1.085844772340e-11       1.509573016781e-12      -7.441367043577e-15 
   99       3.799382515328e-10       1.196788357060e-13      -3.490055844919e-12       1.042545727693e-14       1.057385525792e-11       1.477760093321e-12      -7.366299232948e-15 
  100       3.835598833371e-10       1.217199145979e-13      -3.573831362981e-12       1.036578273985e-14       1.029942703058e-11       1.446998210956e-12      -7.294647027776e-15 
  101       3.872214988375e-10       1.237350039655e-13      -3.657548357206e-12       1.030212506969e-14       1.003455736626e-11       1.417218904723e-12      -7.225618190911e-15 
  102       3.909218036745e-10       1.257221138573e-13      -3.741147606119e-12       1.023460396186e-14       9.778515765614e-12       1.388339637421e-12      -7.158329239293e-15 
  103       3.946591527021e-10       1.276792384535e-13      -3.824569148260e-12       1.016334459132e-14       9.530443019249e-12       1.360263359475e-12      -7.091802885729e-15 
  104       3.984319877700e-10       1.296043982667e-13      -3.907752176032e-12       1.008847305445e-14       9.289545694079e-12       1.332900933924e-12      -7.025166325828e-15 
  105       4.022402443942e-10       1.314957719270e-13      -3.990634660765e-12       1.001010199460e-14       9.055717882705e-12       1.306242809346e-12      -6.958282114496e-15 
  106       4.060841135099e-10       1.333515834141e-13      -4.073153711508e-12       9.928343024800e-15       8.828996590048e-12       1.280296253441e-12      -6.891198139144e-15 
  107       4.099636015690e-10       1.351700631047e-13      -4.155245712345e-12       9.843311061927e-15       8.609369176028e-12       1.255063165912e-12      -6.823954037862e-15 
