# dimensionless total lensed [l(l+1)/2pi] C_l's
# for l=2 to 5000, i.e. number of multipoles equal to 4999
#
# -> if you prefer output in CAMB/HealPix/LensPix units/order, set 'format' to 'camb' in input file
# -> if you don't want to see such a header, set 'headers' to 'no' in input file
# -> for CMB lensing (phi), these are C_l^phi-phi for the lensing potential.
#    Remember the conversion factors:
#    C_l^dd (deflection) = l(l+1) C_l^phi-phi
#    C_l^gg (shear/convergence) = 1/4 (l(l+1))^2 C_l^phi-phi
#
# 1:l     2:TT                     3:EE                     4:TE                     5:BB                     6:phiphi                 7:TPhi                   8:Ephi               
    2       2.857113442488e-10       7.737430083742e-15       5.610482444072e-13       4.752331227610e-15       8.436333595015e-09       4.650966260025e-10      -2.059105387652e-12 
    3       2.437094857469e-10       1.003102353698e-14       4.521820401182e-13       4.790924532588e-15       5.179265417193e-09       3.305026506042e-10      -1.650907314640e-12 
    4       2.247965002675e-10       9.612220635661e-15       3.866734471973e-13       4.171161534625e-15       3.603931654892e-09       2.506457507431e-10      -1.174318771880e-12 
    5       2.142295621228e-10       7.427206169436e-15       3.236697173893e-13       3.271517513696e-15       2.691402312326e-09       1.981754596071e-10      -7.483506833501e-13 
    6       2.073001933956e-10       4.893402755585e-15       2.614216194835e-13       2.377588149523e-15       2.102976711762e-09       1.613522990132e-10      -4.084506303877e-13 
    7       2.027596633967e-10       2.940592124680e-15       2.052903484559e-13       1.647020949393e-15       1.696790668501e-09       1.343074387822e-10      -1.633755847305e-13 
    8       1.998332639837e-10       1.814666642288e-15       1.587589706703e-13       1.133136097712e-15       1.402001907985e-09       1.137586664884e-10      -7.082187948622e-15 
    9       1.980216809154e-10       1.328469371950e-15       1.234552501240e-13       8.244557597153e-16       1.179920534743e-09       9.773289241180e-11       7.491205622064e-14 
   10       1.969697649075e-10       1.183683560873e-15       9.938147929785e-14       6.799595024640e-16       1.007936426458e-09       8.498298206340e-11       1.012931349345e-13 
   11       1.964894183549e-10       1.167592842754e-15       8.522252063355e-14       6.518614755367e-16       8.504935379794e-10       7.498714904315e-11       9.150713882317e-14 
   12       1.964204978912e-10       1.192736965316e-15       7.880650979915e-14       6.987984120981e-16       7.431349602131e-10       6.632827996055e-11       6.295270338775e-14 
   13       1.966481065431e-10       1.249398452063e-15       7.767145214720e-14       7.898991814363e-16       6.550060461906e-10       5.926183196945e-11       2.934774575827e-14 
   14       1.970727601954e-10       1.346398585732e-15       7.956743081545e-14       9.055892128886e-16       5.816814964174e-10       5.310436919879e-11      -7.088459285569e-16 
   15       1.976927933846e-10       1.483333087821e-15       8.272271054546e-14       1.034273776349e-15       5.199621430499e-10       4.793829853590e-11      -2.197680571783e-14 
   16       1.984626135297e-10       1.649696147990e-15       8.583887446458e-14       1.170520031851e-15       4.674867035210e-10       4.352700515521e-11      -3.322870463951e-14 
   17       1.993271417592e-10       1.836200067547e-15       8.821229201361e-14       1.311999334933e-15       4.224716594539e-10       3.969738159401e-11      -3.568921124134e-14 
   18       2.002622236763e-10       2.040894938557e-15       8.977651000650e-14       1.457825177039e-15       3.834010522686e-10       3.630231791335e-11      -3.210444312885e-14 
   19       2.012957273438e-10       2.267622872305e-15       9.064382704339e-14       1.607769731750e-15       3.496542725645e-10       3.331703378592e-11      -2.504735886312e-14 
   20       2.023697778127e-10       2.521377713806e-15       9.098906055522e-14       1.761854387431e-15       3.199316165052e-10       3.068548608246e-11      -1.747558743737e-14 
   21       2.035052530155e-10       2.803984269061e-15       9.108541576520e-14       1.919944686758e-15       2.937664655274e-10       2.836436329700e-11      -1.100153113012e-14 
   22       2.046896954008e-10       3.115524387920e-15       9.121745966414e-14       2.081928078563e-15       2.705328436123e-10       2.627646810006e-11      -6.758756921138e-15 
   23       2.059227019410e-10       3.454803173067e-15       9.137849650862e-14       2.247709509245e-15       2.499115237868e-10       2.439345917117e-11      -4.946602867636e-15 
   24       2.071721999802e-10       3.819965461113e-15       9.141866806463e-14       2.417232122236e-15       2.314260952424e-10       2.268374626325e-11      -5.268543420770e-15 
   25       2.084610005406e-10       4.211008107989e-15       9.113296832692e-14       2.590335058388e-15       2.148593295628e-10       2.115041082934e-11      -7.038861498120e-15 
   26       2.097967288807e-10       4.628381157220e-15       9.025265598421e-14       2.766828796218e-15       1.999115573935e-10       1.978801621201e-11      -9.325842671345e-15 
   27       2.111645301510e-10       5.072467983317e-15       8.849652916223e-14       2.946450191032e-15       1.864035389303e-10       1.856318649293e-11      -1.144244640478e-14 
   28       2.125271386606e-10       5.543650417083e-15       8.558512052990e-14       3.128924348383e-15       1.741024446661e-10       1.742772449575e-11      -1.279754084410e-14 
   29       2.139022640819e-10       6.042790647707e-15       8.143148300268e-14       3.314025559063e-15       1.629455132325e-10       1.637885707722e-11      -1.330719780530e-14 
   30       2.153043612415e-10       6.570926846635e-15       7.601795301989e-14       3.501556046806e-15       1.528130081604e-10       1.542028338649e-11      -1.308139052968e-14 
   31       2.167283252597e-10       7.129131706001e-15       6.934275383668e-14       3.691323296327e-15       1.434983261393e-10       1.454713043879e-11      -1.229207265372e-14 
   32       2.181815019065e-10       7.718456283729e-15       6.141046953375e-14       3.883089599719e-15       1.349534150722e-10       1.375130119679e-11      -1.116005436027e-14 
   33       2.196586660156e-10       8.339967582745e-15       5.224022769047e-14       4.076604022168e-15       1.271178973026e-10       1.301633825849e-11      -9.972906114538e-15 
   34       2.211421962682e-10       8.994697546831e-15       4.186318098185e-14       4.271613049589e-15       1.198821790444e-10       1.232218314114e-11      -9.023182287398e-15 
   35       2.226408919726e-10       9.683412003890e-15       3.030088116434e-14       4.467852684740e-15       1.132092630534e-10       1.167004358835e-11      -8.362631618399e-15 
   36       2.241615777792e-10       1.040675431824e-14       1.758064150483e-14       4.665053121151e-15       1.070456523166e-10       1.106541972501e-11      -7.962529470254e-15 
   37       2.257021374474e-10       1.116530198643e-14       3.721607317597e-15       4.862950653930e-15       1.013111720407e-10       1.051086541155e-11      -7.778851712178e-15 
   38       2.272680785562e-10       1.195957088515e-14      -1.133468819000e-14       5.061322544734e-15       9.599102883874e-11       1.000462948470e-11      -7.758757196920e-15 
   39       2.288592391694e-10       1.279000326867e-14      -2.767869011683e-14       5.259964071707e-15       9.106836293516e-11       9.541031482196e-12      -7.833988353812e-15 
   40       2.304638780191e-10       1.365695978479e-14      -4.541564539667e-14       5.458679876337e-15       8.649624443956e-11       9.110408451416e-12      -7.917506767020e-15 
   41       2.320660592788e-10       1.456077428065e-14      -6.464595349689e-14       5.657264641479e-15       8.221402792338e-11       8.702052234042e-12      -7.924570722815e-15 
   42       2.336734692403e-10       1.550195251652e-14      -8.539587933501e-14       5.855436299787e-15       7.820912498366e-11       8.314953783974e-12      -7.847264193384e-15 
   43       2.352967146646e-10       1.648102915042e-14      -1.076661378384e-13       6.052881965119e-15       7.447092563978e-11       7.950008626493e-12      -7.702098138250e-15 
   44       2.369410113254e-10       1.749851199059e-14      -1.314503774581e-13       6.249275077728e-15       7.097226183302e-11       7.606956611618e-12      -7.510025504803e-15 
   45       2.386078097060e-10       1.855483437565e-14      -1.567369843739e-13       6.444291168988e-15       6.767911530891e-11       7.284748163366e-12      -7.294859928366e-15 
   46       2.403015870992e-10       1.965019822233e-14      -1.835159130886e-13       6.637662754109e-15       6.458630861656e-11       6.983011897385e-12      -7.077325200716e-15 
   47       2.420241220953e-10       2.078468197346e-14      -2.117733386456e-13       6.829139422146e-15       6.169024193572e-11       6.700853746809e-12      -6.879690895562e-15 
   48       2.437720494604e-10       2.195827912560e-14      -2.414895003360e-13       7.018472770190e-15       5.897812779752e-11       6.436355398303e-12      -6.727633764968e-15 
   49       2.455364196972e-10       2.317089433325e-14      -2.726384957595e-13       7.205416520119e-15       5.642730785153e-11       6.186500084331e-12      -6.650403773596e-15 
   50       2.473072014596e-10       2.442236619566e-14      -3.051967948306e-13       7.389727173974e-15       5.401207746221e-11       5.948052185196e-12      -6.672592408451e-15 
   51       2.490892513906e-10       2.571255194738e-14      -3.391719840541e-13       7.571165918951e-15       5.172792846942e-11       5.720649669751e-12      -6.786418267800e-15 
   52       2.508899177903e-10       2.704125902186e-14      -3.745814685807e-13       7.749497441306e-15       4.957270584115e-11       5.504422790148e-12      -6.972205709010e-15 
   53       2.527142737246e-10       2.840821780044e-14      -4.114446337527e-13       7.924489571641e-15       4.753935288167e-11       5.299085010016e-12      -7.205901361637e-15 
   54       2.545649091912e-10       2.981307897220e-14      -4.497830495156e-13       8.095913427000e-15       4.561558130819e-11       5.103903681904e-12      -7.458844974624e-15 
   55       2.564429359994e-10       3.125544451765e-14      -4.896150519038e-13       8.263554597646e-15       4.378762058487e-11       4.917982680327e-12      -7.703817246817e-15 
   56       2.583517708688e-10       3.273497572147e-14      -5.309374429136e-13       8.427249636209e-15       4.205331246459e-11       4.741259696799e-12      -7.935467655595e-15 
   57       2.602939280949e-10       3.425130736796e-14      -5.737396025289e-13       8.586858882119e-15       4.041169152585e-11       4.573705333520e-12      -8.154559960294e-15 
   58       2.622697320844e-10       3.580401516699e-14      -6.180086989978e-13       8.742256771059e-15       3.885902365081e-11       4.415016059279e-12      -8.362154903886e-15 
   59       2.642771567689e-10       3.739261442382e-14      -6.637296741696e-13       8.893332407378e-15       3.738863503405e-11       4.264597040998e-12      -8.559625617970e-15 
   60       2.663116650190e-10       3.901655870893e-14      -7.108852288310e-13       9.039990136494e-15       3.599074119137e-11       4.121544975285e-12      -8.748673027765e-15 
   61       2.683684909475e-10       4.067525542306e-14      -7.594579804763e-13       9.182141756720e-15       3.465516389232e-11       3.984903786261e-12      -8.930642683228e-15 
   62       2.704504487477e-10       4.236811958387e-14      -8.094375357613e-13       9.319679816976e-15       3.338058142861e-11       3.854537627438e-12      -9.104261209897e-15 
   63       2.725615996468e-10       4.409452980685e-14      -8.608149867418e-13       9.452499313930e-15       3.216706069008e-11       3.730424260545e-12      -9.267416804328e-15 
   64       2.747048822565e-10       4.585381169715e-14      -9.135809317150e-13       9.580505824747e-15       3.101327467171e-11       3.612391138616e-12      -9.417806347883e-15 
   65       2.768820294979e-10       4.764523705555e-14      -9.677255294863e-13       9.703615814216e-15       2.991642311409e-11       3.500106895379e-12      -9.552928646507e-15 
   66       2.790934855269e-10       4.946802308436e-14      -1.023238553635e-12       9.821756941889e-15       2.887215314380e-11       3.393072834646e-12      -9.670077670503e-15 
   67       2.813383226593e-10       5.132133159332e-14      -1.080109446782e-12       9.934868369208e-15       2.787447991381e-11       3.290614419700e-12      -9.766335794299e-15 
   68       2.836153494644e-10       5.320424010854e-14      -1.138325206573e-12       1.004289569236e-14       2.691738481270e-11       3.192061459762e-12      -9.839111919434e-15 
   69       2.859268814712e-10       5.511565017611e-14      -1.197863424924e-12       1.014577386206e-14       2.600016353376e-11       3.097350089925e-12      -9.887897571770e-15 
   70       2.882755887778e-10       5.705435896653e-14      -1.258697929349e-12       1.024344133869e-14       2.512302407949e-11       3.006528039810e-12      -9.912856126343e-15 
   71       2.906633208184e-10       5.901908424216e-14      -1.320800825283e-12       1.033584532703e-14       2.428546927305e-11       2.919573110423e-12      -9.914316454738e-15 
   72       2.930910537530e-10       6.100846284464e-14      -1.384142494888e-12       1.042294194593e-14       2.348626030322e-11       2.836389489551e-12      -9.892780100496e-15 
   73       2.955588378571e-10       6.302104918214e-14      -1.448691595871e-12       1.050469639798e-14       2.272338026940e-11       2.756804067165e-12      -9.848928454513e-15 
   74       2.980657449119e-10       6.505531371673e-14      -1.514415060291e-12       1.058108313921e-14       2.199399772654e-11       2.680562750822e-12      -9.783629930448e-15 
   75       3.006098155940e-10       6.710964145171e-14      -1.581278093372e-12       1.065208604878e-14       2.129443023017e-11       2.607326781066e-12      -9.697947140133e-15 
   76       3.031890995571e-10       6.918240510147e-14      -1.649245553635e-12       1.071769616774e-14       2.062105829703e-11       2.536759444664e-12      -9.593410298951e-15 
   77       3.058051109390e-10       7.127220334910e-14      -1.718286386473e-12       1.077790406436e-14       1.997334028469e-11       2.468812614653e-12      -9.472879139610e-15 
   78       3.084599103286e-10       7.337766348984e-14      -1.788370000656e-12       1.083270637840e-14       1.935128361259e-11       2.403486010840e-12      -9.339851938999e-15 
   79       3.111550382602e-10       7.549737062139e-14      -1.859464985432e-12       1.088210824638e-14       1.875452642787e-11       2.340739636152e-12      -9.198225662013e-15 
   80       3.138914850094e-10       7.762986766266e-14      -1.931539137668e-12       1.092612342144e-14       1.818232063936e-11       2.280491945710e-12      -9.052308596222e-15 
   81       3.166696603900e-10       7.977365537253e-14      -2.004559488981e-12       1.096477439315e-14       1.763351495158e-11       2.222618015918e-12      -8.906832986538e-15 
   82       3.194893635500e-10       8.192719236859e-14      -2.078492332878e-12       1.099809250737e-14       1.710653789879e-11       2.166947713542e-12      -8.766967669877e-15 
   83       3.223497527681e-10       8.408889514594e-14      -2.153303251892e-12       1.102611808605e-14       1.659938087899e-11       2.113263864791e-12      -8.638330709832e-15 
   84       3.252499427132e-10       8.625713214349e-14      -2.228955639661e-12       1.104889701405e-14       1.611008620733e-11       2.061355112146e-12      -8.525656373419e-15 
   85       3.281909761461e-10       8.843020477178e-14      -2.305405926203e-12       1.106646958683e-14       1.563834140229e-11       2.011188563387e-12      -8.428514476194e-15 
   86       3.311741252266e-10       9.060636325980e-14      -2.382607607166e-12       1.107888002505e-14       1.518411932097e-11       1.962762540297e-12      -8.344901260791e-15 
   87       3.342002737453e-10       9.278381224758e-14      -2.460512680324e-12       1.108617990282e-14       1.474718828559e-11       1.916053537343e-12      -8.272512125265e-15 
   88       3.372698974649e-10       9.496071070494e-14      -2.539071647417e-12       1.108842820813e-14       1.432710360521e-11       1.871015309876e-12      -8.208731641657e-15 
   89       3.403830444621e-10       9.713517185024e-14      -2.618233515997e-12       1.108569140331e-14       1.392319909753e-11       1.827577962338e-12      -8.150623574564e-15 
   90       3.435393154703e-10       9.930526306902e-14      -2.697945801262e-12       1.107804348552e-14       1.353457861059e-11       1.785647036468e-12      -8.094920899703e-15 
   91       3.467378442208e-10       1.014690058328e-13      -2.778154527905e-12       1.106556604717e-14       1.316010754452e-11       1.745102599499e-12      -8.038015822480e-15 
   92       3.499772777850e-10       1.036243756177e-13      -2.858804231952e-12       1.104834833638e-14       1.279840437328e-11       1.705798332370e-12      -7.975949796559e-15 
   93       3.532563179041e-10       1.057693513118e-13      -2.939839019452e-12       1.102648282484e-14       1.244816835618e-11       1.667597832668e-12      -7.905338783874e-15 
   94       3.565754808064e-10       1.079020721139e-13      -3.021205920686e-12       1.100005101752e-14       1.210923746809e-11       1.630491749602e-12      -7.826329899307e-15 
   95       3.599355669522e-10       1.100207041919e-13      -3.102852046184e-12       1.096913561053e-14       1.178167464694e-11       1.594496662293e-12      -7.740073060030e-15 
   96       3.633371118327e-10       1.121233938865e-13      -3.184723590955e-12       1.093382479246e-14       1.146544196947e-11       1.559619039168e-12      -7.647828184072e-15 
   97       3.667803740122e-10       1.142082683099e-13      -3.266765850838e-12       1.089421224310e-14       1.116039678789e-11       1.525854837000e-12      -7.550968046794e-15 
   98       3.702653231710e-10       1.162734359432e-13      -3.348923238849e-12       1.085039713228e-14       1.086628786633e-11       1.493189099957e-12      -7.450981137362e-15 
   99       3.737916281478e-10       1.183169872346e-13      -3.431139301530e-12       1.080248411861e-14       1.058275151751e-11       1.461595558643e-12      -7.349474515217e-15 
  100       3.773586449819e-10       1.203369951977e-13      -3.513356735298e-12       1.075058334831e-14       1.030930773921e-11       1.431036229147e-12      -7.248176666553e-15 
  101       3.809654049566e-10       1.223315160093e-13      -3.595517402795e-12       1.069481045397e-14       1.004535635092e-11       1.401461012082e-12      -7.148940360787e-15 
  102       3.846106026409e-10       1.242985896074e-13      -3.677562349233e-12       1.063528655332e-14       9.790173130319e-12       1.372807291635e-12      -7.053745507032e-15 
  103       3.882925839326e-10       1.262362402894e-13      -3.759431818748e-12       1.057213824808e-14       9.542905949898e-12       1.344999534605e-12      -6.964702010572e-15 
  104       3.920097842590e-10       1.281425184201e-13      -3.841065324808e-12       1.050549298253e-14       9.302767900123e-12       1.317966826114e-12      -6.883573173039e-15 
  105       3.957621363501e-10       1.300156306848e-13      -3.922401837075e-12       1.043546440796e-14       9.069654691530e-12       1.291699038105e-12      -6.810266417488e-15 
  106       3.995498312284e-10       1.318538286283e-13      -4.003379650381e-12       1.036216502972e-14       8.843603840369e-12       1.266197536214e-12      -6.744143058436e-15 
  107       4.033728781061e-10       1.336553701531e-13      -4.083936349660e-12       1.028571061928e-14       8.624603451398e-12       1.241457719276e-12      -6.684477168691e-15 
