# Matter power spectrum P(k) at redshift z=0
# for k=1.03892e-05 to 108.968 h/Mpc,
# number of wavenumbers equal to 813
#    1:k (h/Mpc)              2:P (Mpc/h)^3        
       1.038922642939e-05       5.572377248316e+01 
       2.321812845777e-05       1.198434543034e+02 
       3.609173375949e-05       1.824082400059e+02 
       4.904439972293e-05       2.442636181517e+02 
       6.211104703766e-05       3.058633026601e+02 
       7.532746857054e-05       3.675309945727e+02 
       8.873064803662e-05       4.295329706675e+02 
       1.023590926717e-04       4.921073364991e+02 
       1.162531841463e-04       5.554787097771e+02 
       1.304555519933e-04       6.198668155845e+02 
       1.450114738307e-04       6.854922160146e+02 
       1.599693066034e-04       7.525805808868e+02 
       1.753809529045e-04       8.213661680799e+02 
       1.913023660834e-04       8.920948842990e+02 
       2.077940972269e-04       9.650271244940e+02 
       2.249218860767e-04       1.040440507111e+03 
       2.427572963652e-04       1.118632561578e+03 
       2.613783937036e-04       1.199923412875e+03 
       2.808704607789e-04       1.284658408944e+03 
       3.013267399005e-04       1.373210716858e+03 
       3.228491865167e-04       1.465983753960e+03 
       3.455492088079e-04       1.563413379679e+03 
       3.695483574944e-04       1.665969650239e+03 
       3.949789163030e-04       1.774157947163e+03 
       4.219843271272e-04       1.888519157185e+03 
       4.507193652352e-04       2.009628585703e+03 
       4.813499601652e-04       2.138093140795e+03 
       5.140525395271e-04       2.274546338714e+03 
       5.490127596148e-04       2.419640605491e+03 
       5.864234840096e-04       2.574036398992e+03 
       6.264818862127e-04       2.738387816916e+03 
       6.693855924581e-04       2.913324478651e+03 
       7.153278526981e-04       3.099429919557e+03 
       7.644918337246e-04       3.297217113373e+03 
       8.170442631527e-04       3.507102362293e+03 
       8.731288004716e-04       3.729379335597e+03 
       9.328596440384e-04       3.964195397584e+03 
       9.963159657110e-04       4.211532898124e+03 
       1.063537764317e-03       4.471197570307e+03 
       1.134523625953e-03       4.742815975642e+03 
       1.209230678886e-03       5.025842640966e+03 
       1.287576767588e-03       5.319576842808e+03 
       1.369444598904e-03       5.623171034954e+03 
       1.454687391583e-03       5.935680221189e+03 
       1.543135431286e-03       6.256127515755e+03 
       1.634602911679e-03       6.583474084180e+03 
       1.728894515035e-03       6.916673096405e+03 
       1.825811320086e-03       7.254694777994e+03 
       1.925155782401e-03       7.596546285624e+03 
       2.026735680812e-03       7.941286798153e+03 
       2.130367041837e-03       8.288037641293e+03 
       2.235876134908e-03       8.635989105193e+03 
       2.343100676070e-03       8.984402161543e+03 
       2.451890393792e-03       9.332608668549e+03 
       2.562107106469e-03       9.680009400736e+03 
       2.673624445201e-03       1.002607007339e+04 
       2.786327333995e-03       1.037031748343e+04 
       2.900111316992e-03       1.071233410611e+04 
       3.014881801364e-03       1.105175527754e+04 
       3.130553266383e-03       1.138826047028e+04 
       3.247048474339e-03       1.172157335005e+04 
       3.364297707344e-03       1.205145197750e+04 
       3.482238045183e-03       1.237769104017e+04 
       3.600812692879e-03       1.270011091480e+04 
       3.719970362018e-03       1.301856335644e+04 
       3.839664706618e-03       1.333291739027e+04 
       3.959853812268e-03       1.364306716560e+04 
       4.080499735881e-03       1.394892511664e+04 
       4.201568092653e-03       1.425041553829e+04 
       4.323027686457e-03       1.454748441415e+04 
       4.444850179783e-03       1.484007967300e+04 
       4.567009799409e-03       1.512817521465e+04 
       4.689483074174e-03       1.541174057961e+04 
       4.812248601458e-03       1.569076309206e+04 
       4.935286839263e-03       1.596523828122e+04 
       5.058579921044e-03       1.623516121180e+04 
       5.182111490760e-03       1.650053665973e+04 
       5.305866555835e-03       1.676137717912e+04 
       5.429831356000e-03       1.701769474192e+04 
       5.553993246208e-03       1.726951195116e+04 
       5.678340591997e-03       1.751684478481e+04 
       5.802862675902e-03       1.775972472976e+04 
       5.927549613644e-03       1.799818642778e+04 
       6.052392279003e-03       1.823228108254e+04 
       6.177382236385e-03       1.846197416225e+04 
       6.302511680230e-03       1.868731819475e+04 
       6.427773380501e-03       1.890838077005e+04 
       6.553160633584e-03       1.912516545478e+04 
       6.678667218001e-03       1.933759432006e+04 
       6.804287354430e-03       1.954595984144e+04 
       6.930015669548e-03       1.975017667653e+04 
       7.055847163317e-03       1.995029421458e+04 
       7.181777179324e-03       2.014634063153e+04 
       7.307801377880e-03       2.033835642971e+04 
       7.433915711576e-03       2.052639971096e+04 
       7.560116403057e-03       2.071049542719e+04 
       7.686399924782e-03       2.089069045143e+04 
       7.812762980579e-03       2.106702691379e+04 
       7.939202488810e-03       2.123954474448e+04 
       8.065715566993e-03       2.140828218788e+04 
       8.192299517746e-03       2.157328724770e+04 
       8.318951815908e-03       2.173459421641e+04 
       8.445670096748e-03       2.189224393658e+04 
       8.572452145146e-03       2.204627848494e+04 
       8.699295885663e-03       2.219674440820e+04 
       8.826199373408e-03       2.234367932799e+04 
       8.953160785648e-03       2.248711537756e+04 
       9.080178414077e-03       2.262709613701e+04 
       9.207250657696e-03       2.276368697202e+04 
       9.334376016246e-03       2.289689181318e+04 
       9.461553084149e-03       2.302676421774e+04 
       9.588780544910e-03       2.315334160512e+04 
       9.716057165945e-03       2.327666050526e+04 
       9.843381793799e-03       2.339675785172e+04 
       9.970753349712e-03       2.351368689717e+04 
       1.009817082553e-02       2.362746148168e+04 
       1.022563327988e-02       2.373813330260e+04 
       1.035313983469e-02       2.384573259754e+04 
       1.048068967188e-02       2.395027852990e+04 
       1.060828203033e-02       2.405185705380e+04 
       1.073591620312e-02       2.415047964131e+04 
       1.086359153481e-02       2.424613822230e+04 
       1.099130741913e-02       2.433892844967e+04 
       1.111906329662e-02       2.442887422166e+04 
       1.124685865257e-02       2.451595441514e+04 
       1.137469301507e-02       2.460026468501e+04 
       1.150256595319e-02       2.468183571215e+04 
       1.163047707528e-02       2.476065438529e+04 
       1.175842602739e-02       2.483681086532e+04 
       1.188641249182e-02       2.491029795429e+04 
       1.201443618576e-02       2.498115685380e+04 
       1.214249686003e-02       2.504942157286e+04 
       1.227059429786e-02       2.511513251509e+04 
       1.239872831385e-02       2.517831132354e+04 
       1.252689875292e-02       2.523897825461e+04 
       1.265510548940e-02       2.529717263225e+04 
       1.278334842612e-02       2.535294378513e+04 
       1.291162749359e-02       2.540629293391e+04 
       1.303994264930e-02       2.545727961946e+04 
       1.316829387699e-02       2.550590734298e+04 
       1.329668118602e-02       2.555222399365e+04 
       1.342510461074e-02       2.559623780314e+04 
       1.355356421003e-02       2.563799917124e+04 
       1.368206006672e-02       2.567751412728e+04 
       1.381059228718e-02       2.571484713375e+04 
       1.393916100088e-02       2.574998064416e+04 
       1.406776636002e-02       2.578296987925e+04 
       1.419640853919e-02       2.581384615497e+04 
       1.432508773506e-02       2.584263217276e+04 
       1.445380416611e-02       2.586933233492e+04 
       1.458255807237e-02       2.589400047295e+04 
       1.471134971523e-02       2.591665204074e+04 
       1.484017937721e-02       2.593731701339e+04 
       1.496904736186e-02       2.595601939090e+04 
       1.509795399360e-02       2.597278546906e+04 
       1.522689961757e-02       2.598764048072e+04 
       1.535588459964e-02       2.600061393653e+04 
       1.548490932627e-02       2.601172539264e+04 
       1.561397420449e-02       2.602100044432e+04 
       1.574307966191e-02       2.602847084236e+04 
       1.587222614672e-02       2.603416240957e+04 
       1.600141412769e-02       2.603807643989e+04 
       1.613064409423e-02       2.604024955394e+04 
       1.625991655648e-02       2.604072048537e+04 
       1.638923204534e-02       2.603949989929e+04 
       1.651859111263e-02       2.603660925905e+04 
       1.664799433120e-02       2.603209501293e+04 
       1.677744229502e-02       2.602594551537e+04 
       1.690693561941e-02       2.601822694940e+04 
       1.703647494116e-02       2.600889895297e+04 
       1.716606091875e-02       2.599801510957e+04 
       1.729569423256e-02       2.598562675020e+04 
       1.742537558506e-02       2.597171466017e+04 
       1.755510570111e-02       2.595635327361e+04 
       1.768488532816e-02       2.593950339911e+04 
       1.781471523658e-02       2.592123262468e+04 
       1.794459621991e-02       2.590154357925e+04 
       1.807452909519e-02       2.588042258627e+04 
       1.820451470329e-02       2.585795119361e+04 
       1.833455390922e-02       2.583414916797e+04 
       1.846464760255e-02       2.580899826404e+04 
       1.859479669771e-02       2.578252472353e+04 
       1.872500213445e-02       2.575478655733e+04 
       1.885526487820e-02       2.572575946519e+04 
       1.898558592054e-02       2.569547108280e+04 
       1.911596627961e-02       2.566396505868e+04 
       1.924640700059e-02       2.563124020909e+04 
       1.937690915616e-02       2.559732434932e+04 
       1.950747384705e-02       2.556225270144e+04 
       1.963810220248e-02       2.552601919423e+04 
       1.976879538078e-02       2.548866217042e+04 
       1.989955456986e-02       2.545019510739e+04 
       2.003038098787e-02       2.541059182870e+04 
       2.016127588371e-02       2.536998622395e+04 
       2.029224053772e-02       2.532828825027e+04 
       2.042327626226e-02       2.528551446812e+04 
       2.055438440240e-02       2.524176323015e+04 
       2.068556633659e-02       2.519701416322e+04 
       2.081682347734e-02       2.515129212657e+04 
       2.094815727200e-02       2.510455933938e+04 
       2.107956920342e-02       2.505692349816e+04 
       2.121106079080e-02       2.500833777646e+04 
       2.134263359045e-02       2.495884521693e+04 
       2.147428919662e-02       2.490845317694e+04 
       2.160602924233e-02       2.485718358096e+04 
       2.173785540027e-02       2.480506247675e+04 
       2.186976938367e-02       2.475208745118e+04 
       2.200177294727e-02       2.469823357601e+04 
       2.213386788824e-02       2.464366464848e+04 
       2.226605604718e-02       2.458828520192e+04 
       2.239833930914e-02       2.453207182583e+04 
       2.253071960470e-02       2.447514804322e+04 
       2.266319891099e-02       2.441748153370e+04 
       2.279577925287e-02       2.435907858755e+04 
       2.292846270406e-02       2.429993233481e+04 
       2.306125138832e-02       2.424011851180e+04 
       2.319414748067e-02       2.417955427880e+04 
       2.332715320870e-02       2.411840264051e+04 
       2.346027085382e-02       2.405655595546e+04 
       2.359350275265e-02       2.399408666857e+04 
       2.372685129837e-02       2.393097749233e+04 
       2.386031894220e-02       2.386727315336e+04 
       2.399390819482e-02       2.380295173085e+04 
       2.412762162796e-02       2.373812680347e+04 
       2.426146187594e-02       2.367267501198e+04 
       2.439543163729e-02       2.360667224039e+04 
       2.452953367645e-02       2.354008956272e+04 
       2.466377082550e-02       2.347303120143e+04 
       2.479814598595e-02       2.340545713300e+04 
       2.493266213057e-02       2.333741547899e+04 
       2.506732230534e-02       2.326886929245e+04 
       2.520212963140e-02       2.319981412639e+04 
       2.533708730709e-02       2.313032153329e+04 
       2.547219861006e-02       2.306035625379e+04 
       2.560746689946e-02       2.298998492485e+04 
       2.574289561820e-02       2.291921993313e+04 
       2.587848829524e-02       2.284800320742e+04 
       2.601424854807e-02       2.277643300721e+04 
       2.615018008515e-02       2.270438521479e+04 
       2.628628670849e-02       2.263203251795e+04 
       2.642257231637e-02       2.255933393246e+04 
       2.655904090605e-02       2.248625561934e+04 
       2.669569657670e-02       2.241279785181e+04 
       2.683254353228e-02       2.233913206698e+04 
       2.696958608469e-02       2.226503059405e+04 
       2.710682865691e-02       2.219067553163e+04 
       2.724427578631e-02       2.211601080746e+04 
       2.738193212810e-02       2.204107955383e+04 
       2.751980245881e-02       2.196586931272e+04 
       2.765789168003e-02       2.189036270406e+04 
       2.779620482219e-02       2.181466812666e+04 
       2.793474704856e-02       2.173865796517e+04 
       2.807352365931e-02       2.166243867292e+04 
       2.821254009580e-02       2.158595849666e+04 
       2.835180194502e-02       2.150933909740e+04 
       2.849131494419e-02       2.143246897702e+04 
       2.863108498553e-02       2.135544185896e+04 
       2.877111812125e-02       2.127814200793e+04 
       2.891142056871e-02       2.120066230815e+04 
       2.905199871581e-02       2.112309060420e+04 
       2.919285912656e-02       2.104534331253e+04 
       2.933400854692e-02       2.096741045021e+04 
       2.947545391087e-02       2.088932862504e+04 
       2.961720234669e-02       2.081115164579e+04 
       2.975926118359e-02       2.073275281374e+04 
       2.990163795849e-02       2.065434490558e+04 
       3.004434042321e-02       2.057578618566e+04 
       3.018737655192e-02       2.049711498901e+04 
       3.033075454889e-02       2.041831065222e+04 
       3.047448285660e-02       2.033944103960e+04 
       3.061857016421e-02       2.026048595711e+04 
       3.076302541639e-02       2.018141783352e+04 
       3.090785782258e-02       2.010230826437e+04 
       3.105307686660e-02       2.002316852527e+04 
       3.119869231675e-02       1.994389747726e+04 
       3.134471423639e-02       1.986463372778e+04 
       3.149115299496e-02       1.978525442095e+04 
       3.163801927953e-02       1.970592316814e+04 
       3.178532410691e-02       1.962651185652e+04 
       3.193307883634e-02       1.954700139400e+04 
       3.208129518277e-02       1.946759451840e+04 
       3.222998523079e-02       1.938812123334e+04 
       3.237916144927e-02       1.930856508739e+04 
       3.252883670670e-02       1.922898102990e+04 
       3.267902428728e-02       1.914947551822e+04 
       3.282973790787e-02       1.906993924778e+04 
       3.298099173577e-02       1.899044308998e+04 
       3.313280040742e-02       1.891094558011e+04 
       3.328517904812e-02       1.883135466111e+04 
       3.343814329270e-02       1.875190921651e+04 
       3.359170930737e-02       1.867240921314e+04 
       3.374589381272e-02       1.859296796912e+04 
       3.390071410793e-02       1.851352604511e+04 
       3.405618809640e-02       1.843414463291e+04 
       3.421233431269e-02       1.835474905511e+04 
       3.436917195107e-02       1.827539829141e+04 
       3.452672089563e-02       1.819612613724e+04 
       3.468500175217e-02       1.811688567057e+04 
       3.484403588187e-02       1.803766107568e+04 
       3.500384543699e-02       1.795850460807e+04 
       3.516445339873e-02       1.787936100866e+04 
       3.532588361722e-02       1.780030140497e+04 
       3.548816085414e-02       1.772125484720e+04 
       3.565131082779e-02       1.764228544599e+04 
       3.581536026107e-02       1.756339912803e+04 
       3.598033693244e-02       1.748447156959e+04 
       3.614626973017e-02       1.740571235520e+04 
       3.631318871005e-02       1.732694756480e+04 
       3.648112515693e-02       1.724817322753e+04 
       3.665011165028e-02       1.716953823966e+04 
       3.682018213423e-02       1.709089992069e+04 
       3.699137199229e-02       1.701233698387e+04 
       3.716371812730e-02       1.693387531334e+04 
       3.733725904692e-02       1.685543739490e+04 
       3.751203495518e-02       1.677707569981e+04 
       3.768808785064e-02       1.669865641646e+04 
       3.786546163166e-02       1.662037655310e+04 
       3.804420220943e-02       1.654212538468e+04 
       3.822435762953e-02       1.646394474332e+04 
       3.840597820268e-02       1.638577685353e+04 
       3.858911664557e-02       1.630771488476e+04 
       3.877382823277e-02       1.622957878560e+04 
       3.896017096062e-02       1.615155516737e+04 
       3.914820572440e-02       1.607350274450e+04 
       3.933799651004e-02       1.599554779703e+04 
       3.952961060172e-02       1.591756771747e+04 
       3.972311880705e-02       1.583964285169e+04 
       3.991859570163e-02       1.576167197884e+04 
       4.011611989496e-02       1.568374723818e+04 
       4.031577431990e-02       1.560582356614e+04 
       4.051764654839e-02       1.552794858602e+04 
       4.072182913609e-02       1.544995704164e+04 
       4.092841999930e-02       1.537206195348e+04 
       4.113752282770e-02       1.529408990329e+04 
       4.134924753711e-02       1.521600644328e+04 
       4.156371076694e-02       1.513797688379e+04 
       4.178103642758e-02       1.505987690929e+04 
       4.200135630395e-02       1.498173170893e+04 
       4.222481072199e-02       1.490350425368e+04 
       4.245154928613e-02       1.482519763182e+04 
       4.268173169688e-02       1.474680412980e+04 
       4.291552865902e-02       1.466830043604e+04 
       4.315312289241e-02       1.458961055966e+04 
       4.339471025972e-02       1.451083260108e+04 
       4.364050102707e-02       1.443196633580e+04 
       4.389072127675e-02       1.435286087431e+04 
       4.414561449396e-02       1.427360670096e+04 
       4.440544335371e-02       1.419412179343e+04 
       4.467049173799e-02       1.411438874686e+04 
       4.494106701937e-02       1.403443566040e+04 
       4.521750265321e-02       1.395429791968e+04 
       4.550016112887e-02       1.387372781706e+04 
       4.578943733972e-02       1.379289759871e+04 
       4.608576244376e-02       1.371168600652e+04 
       4.638960830041e-02       1.363010603458e+04 
       4.670149258728e-02       1.354806477620e+04 
       4.702198472182e-02       1.346559887761e+04 
       4.735171274002e-02       1.338263892849e+04 
       4.769137131738e-02       1.329904523726e+04 
       4.804173115941e-02       1.321490234263e+04 
       4.840365004088e-02       1.313006873655e+04 
       4.877808583913e-02       1.304451222814e+04 
       4.916611198976e-02       1.295816408847e+04 
       4.956893589854e-02       1.287090397332e+04 
       4.998792097752e-02       1.278262753467e+04 
       5.042461314402e-02       1.269329287460e+04 
       5.088077283903e-02       1.260271587285e+04 
       5.135841389881e-02       1.251083549780e+04 
       5.185985096546e-02       1.241742968728e+04 
       5.238775756514e-02       1.232227772668e+04 
       5.294523753235e-02       1.222526953352e+04 
       5.353591312362e-02       1.212589114998e+04 
       5.416403393096e-02       1.202400683658e+04 
       5.483461151318e-02       1.191915225034e+04 
       5.555358534069e-02       1.181082086210e+04 
       5.632802580607e-02       1.169832591888e+04 
       5.716637886191e-02       1.158085147029e+04 
       5.807875265916e-02       1.145725561943e+04 
       5.907723624772e-02       1.132612366024e+04 
       6.017621842365e-02       1.118554790494e+04 
       6.139263230638e-02       1.103297496022e+04 
