# dimensionless [l(l+1)/2pi] C_l's for scalar mode
# for l=2 to 5500, i.e. number of multipoles equal to 5499
#
# -> if you prefer output in CAMB/HealPix/LensPix units/order, set 'format' to 'camb' in input file
# -> if you don't want to see such a header, set 'headers' to 'no' in input file
# -> for CMB lensing (phi), these are C_l^phi-phi for the lensing potential.
#    Remember the conversion factors:
#    C_l^dd (deflection) = l(l+1) C_l^phi-phi
#    C_l^gg (shear/convergence) = 1/4 (l(l+1))^2 C_l^phi-phi
#
# 1:l     2:TT                     3:EE                     4:TE                     5:BB                     6:phiphi                 7:TPhi                   8:Ephi               
    2       1.435761154548e-10       5.034661735044e-15       3.913053533188e-13       0.000000000000e+00       8.374741566628e-09       4.690799865998e-10      -2.049095739409e-12 
    3       1.353823156200e-10       7.144164238338e-15       4.578560031905e-13       0.000000000000e+00       5.154079456249e-09       3.332395679114e-10      -1.642150121047e-12 
    4       1.275847703759e-10       6.945146929016e-15       4.447154658381e-13       0.000000000000e+00       3.589092570331e-09       2.525098137798e-10      -1.166784052670e-12 
    5       1.216455045834e-10       5.286004565959e-15       3.929076819526e-13       0.000000000000e+00       2.680574575047e-09       1.995615635939e-10      -7.422310266320e-13 
    6       1.174512183643e-10       3.347496275312e-15       3.275250615935e-13       0.000000000000e+00       2.094422116989e-09       1.624754650010e-10      -4.038005476666e-13 
    7       1.146548278883e-10       1.889400421784e-15       2.641263482045e-13       0.000000000000e+00       1.689477583050e-09       1.352064540990e-10      -1.601447307501e-13 
    8       1.128612639023e-10       1.085963024861e-15       2.107574044229e-13       0.000000000000e+00       1.395412920522e-09       1.144620589923e-10      -5.112159677097e-15 
    9       1.118803295248e-10       7.532836724252e-16       1.706943899028e-13       0.000000000000e+00       1.174000581559e-09       9.832382408327e-11       7.586530753587e-14 
   10       1.115375719224e-10       6.341940560829e-16       1.441271362794e-13       0.000000000000e+00       1.002814162831e-09       8.551432887040e-11       1.015148296085e-13 
   11       1.116002223245e-10       5.634893901371e-16       1.295372039608e-13       0.000000000000e+00       8.464728263617e-10       7.537667919220e-11       9.120173156666e-14 
   12       1.120335546742e-10       4.912349691096e-16       1.244609522791e-13       0.000000000000e+00       7.395753461937e-10       6.676047052573e-11       6.265751031094e-14 
   13       1.127427078252e-10       4.301547953014e-16       1.260593443472e-13       0.000000000000e+00       6.518288263271e-10       5.946323083710e-11       2.884244365854e-14 
   14       1.136783493233e-10       3.999619284196e-16       1.317530811101e-13       0.000000000000e+00       5.788201201534e-10       5.338709417054e-11      -9.255319204569e-16 
   15       1.147924309703e-10       4.035481817131e-16       1.394899683431e-13       0.000000000000e+00       5.173736487586e-10       4.826323094864e-11      -2.188934211266e-14 
   16       1.160309766407e-10       4.312856346150e-16       1.479299597298e-13       0.000000000000e+00       4.651341363509e-10       4.380945160964e-11      -3.294439835649e-14 
   17       1.174554569071e-10       4.737853830167e-16       1.563318101193e-13       0.000000000000e+00       4.203209498748e-10       3.984786658402e-11      -3.544941776346e-14 
   18       1.189532405870e-10       5.288404041042e-16       1.644101525060e-13       0.000000000000e+00       3.814259586857e-10       3.639977011733e-11      -3.189312483455e-14 
   19       1.205326202650e-10       6.003661693672e-16       1.722541707595e-13       0.000000000000e+00       3.478318038055e-10       3.342798005970e-11      -2.481280077103e-14 
   20       1.222030065227e-10       6.934643574793e-16       1.800698433673e-13       0.000000000000e+00       3.182453573933e-10       3.078132695571e-11      -1.725275357173e-14 
   21       1.239531723974e-10       8.100983726618e-16       1.880708824531e-13       0.000000000000e+00       2.922017836637e-10       2.842414834899e-11      -1.085100998825e-14 
   22       1.257378230989e-10       9.504786631722e-16       1.964449917893e-13       0.000000000000e+00       2.690772459730e-10       2.632212347279e-11      -6.728915872094e-15 
   23       1.275789279765e-10       1.113606324880e-15       2.051638071157e-13       0.000000000000e+00       2.485535453588e-10       2.445986876650e-11      -4.991492146654e-15 
   24       1.294950415970e-10       1.297783217338e-15       2.140684408502e-13       0.000000000000e+00       2.301561111756e-10       2.280015394536e-11      -5.245570125093e-15 
   25       1.314737177532e-10       1.502927747130e-15       2.228965665507e-13       0.000000000000e+00       2.136684480946e-10       2.129964868928e-11      -6.910422870345e-15 
   26       1.334796410546e-10       1.729346950376e-15       2.313130814245e-13       0.000000000000e+00       1.987921600123e-10       1.990423346529e-11      -9.206885105850e-15 
   27       1.355167723616e-10       1.977582313551e-15       2.390461591963e-13       0.000000000000e+00       1.853493152388e-10       1.862173968245e-11      -1.140274786651e-14 
   28       1.375910203678e-10       2.248257382781e-15       2.458427304639e-13       0.000000000000e+00       1.731087529326e-10       1.746809623693e-11      -1.280530885116e-14 
   29       1.397099961929e-10       2.542367208445e-15       2.515836555582e-13       0.000000000000e+00       1.620077255141e-10       1.643548931549e-11      -1.332359246903e-14 
   30       1.418689481583e-10       2.861041235653e-15       2.561935929077e-13       0.000000000000e+00       1.519264199452e-10       1.549551813333e-11      -1.309424512930e-14 
   31       1.440529568948e-10       3.205476210431e-15       2.596139388184e-13       0.000000000000e+00       1.426585970676e-10       1.461238455679e-11      -1.231481853996e-14 
   32       1.462678382943e-10       3.577043940311e-15       2.618385940930e-13       0.000000000000e+00       1.341565152936e-10       1.378691689804e-11      -1.119629178988e-14 
   33       1.485182372429e-10       3.977232652842e-15       2.628942786104e-13       0.000000000000e+00       1.263604557856e-10       1.302761943573e-11      -1.000214684110e-14 
   34       1.508012072313e-10       4.407483396673e-15       2.628179974313e-13       0.000000000000e+00       1.191617212479e-10       1.233750891890e-11      -9.005351725306e-15 
   35       1.531161892954e-10       4.868698255377e-15       2.616045156290e-13       0.000000000000e+00       1.125234425882e-10       1.170974716345e-11      -8.278355483947e-15 
   36       1.554567000875e-10       5.361552204719e-15       2.592416712959e-13       0.000000000000e+00       1.063921860690e-10       1.112943585041e-11      -7.830739591742e-15 
   37       1.578124134651e-10       5.886673322968e-15       2.557103205017e-13       0.000000000000e+00       1.006879755287e-10       1.057959142639e-11      -7.653784398864e-15 
   38       1.601887421968e-10       6.444844669981e-15       2.509356205402e-13       0.000000000000e+00       9.539605498437e-11       1.005990938331e-11      -7.686514866137e-15 
   39       1.625925776125e-10       7.036860901800e-15       2.448188403020e-13       0.000000000000e+00       9.049966803953e-11       9.573626226847e-12      -7.836084389740e-15 
   40       1.650263979682e-10       7.663470264815e-15       2.372492573037e-13       0.000000000000e+00       8.595215183336e-11       9.122270484771e-12      -7.984721500568e-15 
   41       1.674892421258e-10       8.325356581889e-15       2.281227459782e-13       0.000000000000e+00       8.169319418840e-11       8.705542867350e-12      -8.019532694483e-15 
   42       1.699812337662e-10       9.023085636052e-15       2.174069582666e-13       0.000000000000e+00       7.771024142160e-11       8.321334168873e-12      -7.937584280206e-15 
   43       1.724996743790e-10       9.757136096988e-15       2.050958644736e-13       0.000000000000e+00       7.399268978363e-11       7.965416084117e-12      -7.772223994357e-15 
   44       1.750372893454e-10       1.052790885772e-14       1.911925483472e-13       0.000000000000e+00       7.051345689241e-11       7.631215552978e-12      -7.565052866259e-15 
   45       1.775859277140e-10       1.133576269618e-14       1.757038430309e-13       0.000000000000e+00       6.723865083626e-11       7.311773681495e-12      -7.359123007436e-15 
   46       1.801499386225e-10       1.218114373147e-14       1.586212623561e-13       0.000000000000e+00       6.416311546277e-11       7.006727581886e-12      -7.174926933796e-15 
   47       1.827361022942e-10       1.306448762610e-14       1.399351369866e-13       0.000000000000e+00       6.128328057785e-11       6.717122244326e-12      -7.028081070107e-15 
   48       1.853497051903e-10       1.398618134283e-14       1.196400488343e-13       0.000000000000e+00       5.858644214293e-11       6.443411694462e-12      -6.936082795334e-15 
   49       1.879943699214e-10       1.494656129604e-14       9.773494775198e-14       0.000000000000e+00       5.605008302657e-11       6.185409158884e-12      -6.918390207369e-15 
   50       1.906720320073e-10       1.594590372415e-14       7.421559480530e-14       0.000000000000e+00       5.364865441731e-11       5.942474152089e-12      -6.989632231637e-15 
   51       1.933832573270e-10       1.698439701482e-14       4.904920320782e-14       0.000000000000e+00       5.137766597050e-11       5.714249221322e-12      -7.136881127461e-15 
   52       1.961267168291e-10       1.806215867225e-14       2.219311566486e-14       0.000000000000e+00       4.923496053702e-11       5.500037040753e-12      -7.336348738698e-15 
   53       1.988988879080e-10       1.917924027744e-14      -6.398362433571e-15       0.000000000000e+00       4.721350464204e-11       5.298543200954e-12      -7.559479228091e-15 
   54       2.016938912263e-10       2.033562527345e-14      -3.677420742230e-14       0.000000000000e+00       4.530106032657e-11       5.107837523613e-12      -7.772705564065e-15 
   55       2.045057648363e-10       2.153123579519e-14      -6.897791974255e-14       0.000000000000e+00       4.348391668356e-11       4.925885151168e-12      -7.945726478774e-15 
   56       2.073363219333e-10       2.276596021895e-14      -1.030181434961e-13       0.000000000000e+00       4.175992178521e-11       4.752382938989e-12      -8.079303051160e-15 
   57       2.101889593181e-10       2.403962857753e-14      -1.388911762600e-13       0.000000000000e+00       4.012811337089e-11       4.587311502120e-12      -8.183940859374e-15 
   58       2.130663243904e-10       2.535200229365e-14      -1.765892276391e-13       0.000000000000e+00       3.858477650608e-11       4.430389282333e-12      -8.272061035067e-15 
   59       2.159702469302e-10       2.670277231761e-14      -2.161003129469e-13       0.000000000000e+00       3.712327359382e-11       4.281056061859e-12      -8.358088716603e-15 
   60       2.189016708804e-10       2.809155726500e-14      -2.574081468868e-13       0.000000000000e+00       3.573387438623e-11       4.138456477133e-12      -8.458541502271e-15 
   61       2.218611082782e-10       2.951792352025e-14      -3.004953579240e-13       0.000000000000e+00       3.440645719526e-11       4.001696147828e-12      -8.587682857745e-15 
   62       2.248502744433e-10       3.098145503356e-14      -3.453542150396e-13       0.000000000000e+00       3.313970560364e-11       3.870714542150e-12      -8.743142141322e-15 
   63       2.278707004419e-10       3.248169595723e-14      -3.919781310041e-13       0.000000000000e+00       3.193368380137e-11       3.745579672010e-12      -8.917209111418e-15 
   64       2.309231926970e-10       3.401812891992e-14      -4.403585532132e-13       0.000000000000e+00       3.078707021917e-11       3.626225085261e-12      -9.100932918254e-15 
   65       2.340077813380e-10       3.559017386132e-14      -4.904849627316e-13       0.000000000000e+00       2.969707864090e-11       3.512442029316e-12      -9.284069836421e-15 
   66       2.371236685504e-10       3.719718686675e-14      -5.423448733374e-13       0.000000000000e+00       2.865937931608e-11       3.403871614760e-12      -9.455030997447e-15 
   67       2.402691769248e-10       3.883845900183e-14      -5.959238305658e-13       0.000000000000e+00       2.766802007229e-11       3.299996978969e-12      -9.600830122362e-15 
   68       2.434425837539e-10       4.051319653200e-14      -6.512049151986e-13       0.000000000000e+00       2.671701518243e-11       3.200288709485e-12      -9.709971797256e-15 
   69       2.466449356820e-10       4.222045953188e-14      -7.081671390420e-13       0.000000000000e+00       2.580566215445e-11       3.104692848033e-12      -9.781912727272e-15 
   70       2.498777142108e-10       4.395920868588e-14      -7.667867208805e-13       0.000000000000e+00       2.493416549605e-11       3.013228145674e-12      -9.819432494598e-15 
   71       2.531419717413e-10       4.572832119065e-14      -8.270375398848e-13       0.000000000000e+00       2.410202869656e-11       2.925837705649e-12      -9.825885166577e-15 
   72       2.564383025822e-10       4.752658911368e-14      -8.888911219826e-13       0.000000000000e+00       2.330801799290e-11       2.842385066674e-12      -9.805222233977e-15 
   73       2.597668139575e-10       4.935271775176e-14      -9.523166262280e-13       0.000000000000e+00       2.255012613565e-11       2.762650286249e-12      -9.762015549261e-15 
   74       2.631270970145e-10       5.120532398964e-14      -1.017280831172e-12       0.000000000000e+00       2.182553615507e-11       2.686326023961e-12      -9.701480264855e-15 
   75       2.665181978319e-10       5.308293465847e-14      -1.083748121233e-12       0.000000000000e+00       2.113058512713e-11       2.613013624782e-12      -9.629497771419e-15 
   76       2.699391284531e-10       5.498405874156e-14      -1.151681509901e-12       0.000000000000e+00       2.046167298285e-11       2.542322733361e-12      -9.551465524438e-15 
   77       2.733905716611e-10       5.690742282112e-14      -1.221045954906e-12       0.000000000000e+00       1.981826036078e-11       2.474199766254e-12      -9.468553676581e-15 
   78       2.768734358492e-10       5.885177578362e-14      -1.291805625630e-12       0.000000000000e+00       1.920035413743e-11       2.408652500633e-12      -9.380804326941e-15 
   79       2.803883249456e-10       6.081581865650e-14      -1.363922927415e-12       0.000000000000e+00       1.860759429902e-11       2.345650092437e-12      -9.288242975436e-15 
   80       2.839355204951e-10       6.279820448101e-14      -1.437358509189e-12       0.000000000000e+00       1.803923708644e-11       2.285121282664e-12      -9.190877405473e-15 
   81       2.875149637408e-10       6.479753818505e-14      -1.512071271102e-12       0.000000000000e+00       1.749413814010e-11       2.226952603661e-12      -9.088696566612e-15 
   82       2.911262377055e-10       6.681237645603e-14      -1.588018372153e-12       0.000000000000e+00       1.697073564490e-11       2.170986585416e-12      -8.981669457231e-15 
   83       2.947685492736e-10       6.884122761368e-14      -1.665155237824e-12       0.000000000000e+00       1.646703347510e-11       2.117019961842e-12      -8.869744007191e-15 
   84       2.984411081403e-10       7.088254298447e-14      -1.743435149655e-12       0.000000000000e+00       1.598108609718e-11       2.064854142947e-12      -8.753047045176e-15 
   85       3.021443750921e-10       7.293468966019e-14      -1.822807919083e-12       0.000000000000e+00       1.551258256148e-11       2.014460174152e-12      -8.632524737246e-15 
   86       3.058789887745e-10       7.499597296916e-14      -1.903221006723e-12       0.000000000000e+00       1.506149542075e-11       1.965837962200e-12      -8.509406764495e-15 
   87       3.096453761407e-10       7.706464430721e-14      -1.984619921474e-12       0.000000000000e+00       1.462759402166e-11       1.918965538922e-12      -8.385016907090e-15 
   88       3.134437412030e-10       7.913890086765e-14      -2.066948221120e-12       0.000000000000e+00       1.421043608259e-11       1.873798145943e-12      -8.260775306512e-15 
   89       3.172740537851e-10       8.121688537130e-14      -2.150147512939e-12       0.000000000000e+00       1.380935927147e-11       1.830267319388e-12      -8.138200727791e-15 
   90       3.211360382729e-10       8.329668579651e-14      -2.234157454304e-12       0.000000000000e+00       1.342347278357e-11       1.788279974595e-12      -8.018912821749e-15 
   91       3.250291623668e-10       8.537633510917e-14      -2.318915753294e-12       0.000000000000e+00       1.305164891931e-11       1.747717490818e-12      -7.904634387236e-15 
   92       3.289526258331e-10       8.745381099273e-14      -2.404358169292e-12       0.000000000000e+00       1.269251466214e-11       1.708434795935e-12      -7.797193633370e-15 
   93       3.329056317050e-10       8.952709189106e-14      -2.490419841762e-12       0.000000000000e+00       1.234477724436e-11       1.670295373058e-12      -7.698105283753e-15 
   94       3.368882709757e-10       9.159433536535e-14      -2.577039503835e-12       0.000000000000e+00       1.200827514954e-11       1.633284291042e-12      -7.607236907354e-15 
   95       3.409007507849e-10       9.365372618778e-14      -2.664155906517e-12       0.000000000000e+00       1.168307034470e-11       1.597410560593e-12      -7.523945253021e-15 
   96       3.449431165535e-10       9.570342291501e-14      -2.751706565565e-12       0.000000000000e+00       1.136912459050e-11       1.562672310534e-12      -7.447476063311e-15 
   97       3.490152446120e-10       9.774155839125e-14      -2.839627780333e-12       0.000000000000e+00       1.106629560366e-11       1.529056365617e-12      -7.376960555554e-15 
   98       3.531168348290e-10       9.976624025123e-14      -2.927854652599e-12       0.000000000000e+00       1.077433321936e-11       1.496537824316e-12      -7.311411902932e-15 
   99       3.572474032405e-10       1.017755514232e-13      -3.016321105412e-12       0.000000000000e+00       1.049287555368e-11       1.465079636636e-12      -7.249721715548e-15 
  100       3.614062746785e-10       1.037675506321e-13      -3.104959901920e-12       0.000000000000e+00       1.022144516599e-11       1.434632181910e-12      -7.190656521497e-15 
  101       3.655925753997e-10       1.057402729022e-13      -3.193702664210e-12       0.000000000000e+00       9.959445221392e-12       1.405132846601e-12      -7.132854247936e-15 
  102       3.698052257145e-10       1.076917300605e-13      -3.282479892146e-12       0.000000000000e+00       9.706155653117e-12       1.376505602107e-12      -7.074820702160e-15 
  103       3.740429326153e-10       1.096199112397e-13      -3.371220982205e-12       0.000000000000e+00       9.460729324954e-12       1.348660582558e-12      -7.014926052671e-15 
  104       3.783044638032e-10       1.115228264082e-13      -3.459854812096e-12       0.000000000000e+00       9.222383965060e-12       1.321515201864e-12      -6.951765737841e-15 
  105       3.825895277994e-10       1.133986425751e-13      -3.548311544012e-12       0.000000000000e+00       8.991015761262e-12       1.295061662960e-12      -6.885306295552e-15 
  106       3.868979995351e-10       1.152455670082e-13      -3.636521101224e-12       0.000000000000e+00       8.766661885052e-12       1.269307823430e-12      -6.815888478719e-15 
  107       3.912296453439e-10       1.170618068135e-13      -3.724412648796e-12       0.000000000000e+00       8.549310456041e-12       1.244256287360e-12      -6.743877129681e-15 
