# dimensionless [l(l+1)/2pi] C_l's for scalar mode
# for l=2 to 5500, i.e. number of multipoles equal to 5499
#
# -> if you prefer output in CAMB/HealPix/LensPix units/order, set 'format' to 'camb' in input file
# -> if you don't want to see such a header, set 'headers' to 'no' in input file
# -> for CMB lensing (phi), these are C_l^phi-phi for the lensing potential.
#    Remember the conversion factors:
#    C_l^dd (deflection) = l(l+1) C_l^phi-phi
#    C_l^gg (shear/convergence) = 1/4 (l(l+1))^2 C_l^phi-phi
#
# 1:l     2:TT                     3:EE                     4:TE                     5:BB                     6:phiphi                 7:TPhi                   8:Ephi               
    2       1.420221422215e-10       5.101035697714e-15       3.957769883660e-13       0.000000000000e+00       8.330291776735e-09       4.600429207775e-10      -2.068990389465e-12 
    3       1.341613985502e-10       7.263738174773e-15       4.632379978232e-13       0.000000000000e+00       5.194432790085e-09       3.273331095944e-10      -1.658276977790e-12 
    4       1.266100258333e-10       7.084614949067e-15       4.497353493007e-13       0.000000000000e+00       3.619684344764e-09       2.481420745410e-10      -1.180849107873e-12 
    5       1.208389854754e-10       5.411335496137e-15       3.973138642606e-13       0.000000000000e+00       2.702882415112e-09       1.961504806652e-10      -7.539858147150e-13 
    6       1.167587721054e-10       3.438420831442e-15       3.311813249084e-13       0.000000000000e+00       2.110159207174e-09       1.596906248697e-10      -4.128664062653e-13 
    7       1.140476167507e-10       1.943558508098e-15       2.669788238663e-13       0.000000000000e+00       1.700385946006e-09       1.329088871209e-10      -1.664916600231e-13 
    8       1.123270744463e-10       1.113497269898e-15       2.128341839279e-13       0.000000000000e+00       1.404083555231e-09       1.125560361768e-10      -8.933238265543e-15 
    9       1.113994730688e-10       7.672549475202e-16       1.720773362140e-13       0.000000000000e+00       1.182265975754e-09       9.670847468062e-11       7.417563620772e-14 
   10       1.110819498648e-10       6.438313765938e-16       1.449508744909e-13       0.000000000000e+00       1.011023215535e-09       8.412785221305e-11       1.014173730933e-13 
   11       1.112045475613e-10       5.724113237985e-16       1.299123663768e-13       0.000000000000e+00       8.508482548257e-10       7.416380171410e-11       9.207978486147e-14 
   12       1.116337144078e-10       4.993641711539e-16       1.245023041324e-13       0.000000000000e+00       7.433572044354e-10       6.574702440268e-11       6.402289287116e-14 
   13       1.123748663451e-10       4.364873046502e-16       1.259233152181e-13       0.000000000000e+00       6.551249703195e-10       5.848316247613e-11       3.007721290829e-14 
   14       1.133340652865e-10       4.041761436015e-16       1.314906723830e-13       0.000000000000e+00       5.817186751523e-10       5.252279241809e-11      -1.712870710106e-17 
   15       1.144461938084e-10       4.061257233007e-16       1.391620694708e-13       0.000000000000e+00       5.199428104604e-10       4.753090545284e-11      -2.146156783449e-14 
   16       1.157322966870e-10       4.327289135150e-16       1.476127232195e-13       0.000000000000e+00       4.674249425399e-10       4.310743802822e-11      -3.311779898883e-14 
   17       1.171352589948e-10       4.741038560031e-16       1.559904654149e-13       0.000000000000e+00       4.223743675991e-10       3.920522722901e-11      -3.595638128279e-14 
   18       1.186241722855e-10       5.277773802961e-16       1.640081584791e-13       0.000000000000e+00       3.832746168261e-10       3.580204572968e-11      -3.256069916288e-14 
   19       1.202229645904e-10       5.975944399997e-16       1.717756739124e-13       0.000000000000e+00       3.495073259375e-10       3.286847967473e-11      -2.553185788149e-14 
   20       1.219096707431e-10       6.886560829707e-16       1.795136918970e-13       0.000000000000e+00       3.197691168502e-10       3.029558882488e-11      -1.792729724001e-14 
   21       1.236733851984e-10       8.031320716109e-16       1.874306040928e-13       0.000000000000e+00       2.935923782414e-10       2.801019788869e-11      -1.141207316647e-14 
   22       1.254775711533e-10       9.414996182094e-16       1.957054521694e-13       0.000000000000e+00       2.703506912080e-10       2.592167884989e-11      -7.146683883416e-15 
   23       1.273338197635e-10       1.102763409369e-15       2.043266141392e-13       0.000000000000e+00       2.497240690271e-10       2.404638331237e-11      -5.269847517090e-15 
   24       1.292467646244e-10       1.285130880361e-15       2.131614336515e-13       0.000000000000e+00       2.312350655976e-10       2.240521380122e-11      -5.411367291181e-15 
   25       1.312138455634e-10       1.488472148749e-15       2.219615271626e-13       0.000000000000e+00       2.146657508617e-10       2.095272339459e-11      -6.947523856392e-15 
   26       1.332160061732e-10       1.713019224806e-15       2.303975433515e-13       0.000000000000e+00       1.997159556407e-10       1.961131029730e-11      -9.058631099482e-15 
   27       1.352547728262e-10       1.959097411591e-15       2.381808477329e-13       0.000000000000e+00       1.862069243070e-10       1.837044904581e-11      -1.112504790264e-14 
   28       1.373283788104e-10       2.227107549685e-15       2.450341325769e-13       0.000000000000e+00       1.739064979946e-10       1.723189871942e-11      -1.259319141584e-14 
   29       1.394445537952e-10       2.518151415069e-15       2.508306150045e-13       0.000000000000e+00       1.627515653797e-10       1.619572663228e-11      -1.331859634177e-14 
   30       1.416015865501e-10       2.833614037708e-15       2.554919169720e-13       0.000000000000e+00       1.526215846325e-10       1.525173213897e-11      -1.329934169185e-14 
   31       1.437872365682e-10       3.174927535852e-15       2.589581356777e-13       0.000000000000e+00       1.433091596726e-10       1.438180117987e-11      -1.259477038382e-14 
   32       1.460051223860e-10       3.543341327814e-15       2.612310441382e-13       0.000000000000e+00       1.347662975822e-10       1.358245294285e-11      -1.142513217216e-14 
   33       1.482555654505e-10       3.940069744640e-15       2.623500676104e-13       0.000000000000e+00       1.269330153728e-10       1.284913505787e-11      -1.011955756019e-14 
   34       1.505322894065e-10       4.366307360372e-15       2.623624913093e-13       0.000000000000e+00       1.197001075209e-10       1.217250400167e-11      -9.020896432432e-15 
   35       1.528394388806e-10       4.823073728635e-15       2.612515891993e-13       0.000000000000e+00       1.130304867961e-10       1.154848217164e-11      -8.221205149387e-15 
   36       1.551788200991e-10       5.311309901949e-15       2.589842092428e-13       0.000000000000e+00       1.068703957800e-10       1.097076264437e-11      -7.735470777808e-15 
   37       1.575470984550e-10       5.831884163185e-15       2.555229166296e-13       0.000000000000e+00       1.011394086766e-10       1.043054712392e-11      -7.557882397883e-15 
   38       1.599445472664e-10       6.385484036739e-15       2.508027466059e-13       0.000000000000e+00       9.582269064448e-11       9.926410918363e-12      -7.618843725607e-15 
   39       1.623679587695e-10       6.972679413053e-15       2.447461193797e-13       0.000000000000e+00       9.090341680114e-11       9.457142165054e-12      -7.811129610247e-15 
   40       1.648074715918e-10       7.593943358976e-15       2.372683180260e-13       0.000000000000e+00       8.633471772795e-11       9.018791309811e-12      -7.998944122113e-15 
   41       1.672519441589e-10       8.249724253497e-15       2.282882969749e-13       0.000000000000e+00       8.205600764997e-11       8.606177443817e-12      -8.052619746820e-15 
   42       1.697087369618e-10       8.940705623052e-15       2.177667326557e-13       0.000000000000e+00       7.805466219223e-11       8.218578202937e-12      -7.970878244060e-15 
   43       1.721892790318e-10       9.667620258774e-15       2.056793839513e-13       0.000000000000e+00       7.432000741896e-11       7.855485230894e-12      -7.795164463372e-15 
   44       1.747033721497e-10       1.043117815739e-14       1.920069726763e-13       0.000000000000e+00       7.082480949053e-11       7.514896613247e-12      -7.577078778630e-15 
   45       1.772578415970e-10       1.123202465585e-14       1.767348677528e-13       0.000000000000e+00       6.753499432798e-11       7.194116101224e-12      -7.368794643590e-15 
   46       1.798525615389e-10       1.207060211533e-14       1.598515413920e-13       0.000000000000e+00       6.444537760794e-11       6.892722233533e-12      -7.189445910592e-15 
   47       1.824828413779e-10       1.294724529427e-14       1.413500005659e-13       0.000000000000e+00       6.155237465008e-11       6.610280039246e-12      -7.049736712436e-15 
   48       1.851401451393e-10       1.386221548047e-14       1.212284387685e-13       0.000000000000e+00       5.884322547743e-11       6.345430510178e-12      -6.961293425225e-15 
   49       1.878117921532e-10       1.481569719805e-14       9.949041128762e-14       0.000000000000e+00       5.629531248239e-11       6.095822043545e-12      -6.936692347333e-15 
   50       1.904856078165e-10       1.580781692187e-14       7.613703794448e-14       0.000000000000e+00       5.388297199941e-11       5.858834750127e-12      -6.984966052904e-15 
   51       1.931660585379e-10       1.683871284926e-14       5.114070955811e-14       0.000000000000e+00       5.160169174103e-11       5.634144210455e-12      -7.096620270216e-15 
   52       1.958619790527e-10       1.790847837490e-14       2.446454736588e-14       0.000000000000e+00       4.944930202620e-11       5.421735115677e-12      -7.254597849124e-15 
   53       1.985819403293e-10       1.901713953474e-14      -3.930443394115e-15       0.000000000000e+00       4.741873407393e-11       5.221138719675e-12      -7.438263929630e-15 
   54       2.013341831971e-10       2.016465274871e-14      -3.408557338934e-14       0.000000000000e+00       4.549769032370e-11       5.031401593034e-12      -7.623220852602e-15 
   55       2.041254001591e-10       2.135093049285e-14      -6.603754658769e-14       0.000000000000e+00       4.367239340379e-11       4.851381423810e-12      -7.787014542403e-15 
   56       2.069568785043e-10       2.257593095576e-14      -9.979522062652e-14       0.000000000000e+00       4.194067891107e-11       4.680792052808e-12      -7.928337716101e-15 
   57       2.098272828044e-10       2.383958670075e-14      -1.353574233718e-13       0.000000000000e+00       4.030157769918e-11       4.519363317616e-12      -8.052272965267e-15 
   58       2.127336139555e-10       2.514177754395e-14      -1.727194937095e-13       0.000000000000e+00       3.875135514296e-11       4.366518649977e-12      -8.164862726433e-15 
   59       2.156710979287e-10       2.648232938508e-14      -2.118732039513e-13       0.000000000000e+00       3.728334036730e-11       4.221356571831e-12      -8.273153729680e-15 
   60       2.186330745224e-10       2.786101303825e-14      -2.528066822405e-13       0.000000000000e+00       3.588775547591e-11       4.082632191370e-12      -8.385241447216e-15 
   61       2.216131606707e-10       2.927752741200e-14      -2.955070628969e-13       0.000000000000e+00       3.455442974397e-11       3.949102507273e-12      -8.508230940619e-15 
   62       2.246125594754e-10       3.073144728279e-14      -3.399693081669e-13       0.000000000000e+00       3.328204045040e-11       3.820694754420e-12      -8.641483986998e-15 
   63       2.276342018183e-10       3.222226167061e-14      -3.861892379289e-13       0.000000000000e+00       3.207065265271e-11       3.697568663812e-12      -8.781928174446e-15 
   64       2.306805782679e-10       3.374938682244e-14      -4.341609852693e-13       0.000000000000e+00       3.091893959078e-11       3.579768972895e-12      -8.925985516830e-15 
   65       2.337537000008e-10       3.531216454646e-14      -4.838770054430e-13       0.000000000000e+00       2.982410345340e-11       3.467218464971e-12      -9.069550791279e-15 
   66       2.368550597230e-10       3.690986054633e-14      -5.353280848354e-13       0.000000000000e+00       2.878179614478e-11       3.359711008605e-12      -9.207969875673e-15 
   67       2.399855925913e-10       3.854166275529e-14      -5.885033499231e-13       0.000000000000e+00       2.778604005110e-11       3.256904597037e-12      -9.336018086132e-15 
   68       2.431459604726e-10       4.020669019705e-14      -6.433891217687e-13       0.000000000000e+00       2.683082368214e-11       3.158427444486e-12      -9.448797548748e-15 
   69       2.463375589575e-10       4.190402537664e-14      -6.999651899435e-13       0.000000000000e+00       2.591544115154e-11       3.064236797895e-12      -9.544688883168e-15 
   70       2.495616451293e-10       4.363268549044e-14      -7.582077962326e-13       0.000000000000e+00       2.504009724840e-11       2.974320659640e-12      -9.622961440323e-15 
   71       2.528190020233e-10       4.539161110875e-14      -8.180907021036e-13       0.000000000000e+00       2.420429254464e-11       2.888587167346e-12      -9.682908995996e-15 
   72       2.561099078182e-10       4.717966477921e-14      -8.795851681417e-13       0.000000000000e+00       2.340678699725e-11       2.806860524780e-12      -9.723851593013e-15 
   73       2.594341050265e-10       4.899562963027e-14      -9.426599334852e-13       0.000000000000e+00       2.264556355046e-11       2.728876932740e-12      -9.745137383448e-15 
   74       2.627907696856e-10       5.083820797457e-14      -1.007281195260e-12       0.000000000000e+00       2.191779173797e-11       2.654280519941e-12      -9.746144470825e-15 
   75       2.661784805489e-10       5.270601991243e-14      -1.073412588016e-12       0.000000000000e+00       2.121979128517e-11       2.582619273908e-12      -9.726282752313e-15 
   76       2.695958310586e-10       5.459765830701e-14      -1.141016272377e-12       0.000000000000e+00       2.054794517325e-11       2.513454995078e-12      -9.685278867767e-15 
   77       2.730434622057e-10       5.651186837089e-14      -1.210056475639e-12       0.000000000000e+00       1.990171151386e-11       2.446725302217e-12      -9.624086963854e-15 
   78       2.765223461201e-10       5.844739844285e-14      -1.280496562456e-12       0.000000000000e+00       1.928109732867e-11       2.382440554385e-12      -9.544148130683e-15 
   79       2.800331588323e-10       6.040294628462e-14      -1.352297985048e-12       0.000000000000e+00       1.868574115726e-11       2.320573981061e-12      -9.447129552597e-15 
   80       2.835762626445e-10       6.237715884023e-14      -1.425420285378e-12       0.000000000000e+00       1.811489612890e-11       2.261059951175e-12      -9.334932155708e-15 
   81       2.871516885025e-10       6.436863199540e-14      -1.499821097337e-12       0.000000000000e+00       1.756741303420e-11       2.203792242131e-12      -9.209698255437e-15 
   82       2.907591183676e-10       6.637591033696e-14      -1.575456148920e-12       0.000000000000e+00       1.704172339684e-11       2.148622308839e-12      -9.073819204045e-15 
   83       2.943978675879e-10       6.839748691215e-14      -1.652279264413e-12       0.000000000000e+00       1.653582254522e-11       2.095357552740e-12      -8.929943038169e-15 
   84       2.980672291681e-10       7.043180301428e-14      -1.730242535323e-12       0.000000000000e+00       1.604775656615e-11       2.043810883050e-12      -8.780752917687e-15 
   85       3.017676107667e-10       7.247724802569e-14      -1.809296860978e-12       0.000000000000e+00       1.557721299981e-11       1.993962632385e-12      -8.628243488426e-15 
   86       3.054995547444e-10       7.453215910746e-14      -1.889391501963e-12       0.000000000000e+00       1.512416403721e-11       1.945822434465e-12      -8.474338019323e-15 
   87       3.092633816496e-10       7.659482093423e-14      -1.970473924274e-12       0.000000000000e+00       1.468837774948e-11       1.899379462370e-12      -8.321110684307e-15 
   88       3.130591786724e-10       7.866346545403e-14      -2.052489804341e-12       0.000000000000e+00       1.426940962814e-11       1.854601559615e-12      -8.170790357580e-15 
   89       3.168867880985e-10       8.073627164810e-14      -2.135383034036e-12       0.000000000000e+00       1.386659412545e-11       1.811434371235e-12      -8.025764408911e-15 
   90       3.207457957633e-10       8.281136529071e-14      -2.219095725696e-12       0.000000000000e+00       1.347903619468e-11       1.769800474866e-12      -7.888582498926e-15 
   91       3.246355195060e-10       8.488681870898e-14      -2.303568217138e-12       0.000000000000e+00       1.310560283042e-11       1.729598511827e-12      -7.761960374393e-15 
   92       3.285549976231e-10       8.696065054270e-14      -2.388739076677e-12       0.000000000000e+00       1.274491460889e-11       1.690702318203e-12      -7.648783663511e-15 
   93       3.325033020804e-10       8.903087719618e-14      -2.474546028550e-12       0.000000000000e+00       1.239567275769e-11       1.652991199733e-12      -7.551364024891e-15 
   94       3.364805571109e-10       9.109567656734e-14      -2.560928877523e-12       0.000000000000e+00       1.205771501005e-11       1.616447852390e-12      -7.469071376583e-15 
   95       3.404870531793e-10       9.315324861401e-14      -2.647827035469e-12       0.000000000000e+00       1.173110364891e-11       1.581073631052e-12      -7.400350914219e-15 
   96       3.445229288816e-10       9.520176631908e-14      -2.735178657563e-12       0.000000000000e+00       1.141580032460e-11       1.546858282417e-12      -7.343432646105e-15 
   97       3.485881638571e-10       9.723937615998e-14      -2.822920659938e-12       0.000000000000e+00       1.111166220088e-11       1.513779503598e-12      -7.296324925694e-15 
   98       3.526825717005e-10       9.926419857798e-14      -2.910988737328e-12       0.000000000000e+00       1.081843810105e-11       1.481802500702e-12      -7.256807984054e-15 
   99       3.568057928734e-10       1.012743284476e-13      -2.999317380727e-12       0.000000000000e+00       1.053576465394e-11       1.450879547427e-12      -7.222427462342e-15 
  100       3.609572876164e-10       1.032678355461e-13      -3.087839895037e-12       0.000000000000e+00       1.026316244002e-11       1.420949543644e-12      -7.190487944270e-15 
  101       3.651363288609e-10       1.052427650227e-13      -3.176488416718e-12       0.000000000000e+00       1.000003213744e-11       1.391937573986e-12      -7.158046488578e-15 
  102       3.693419951411e-10       1.071971378680e-13      -3.265193931441e-12       0.000000000000e+00       9.745650668097e-12       1.363754466435e-12      -7.121906161508e-15 
  103       3.735731635059e-10       1.091289513835e-13      -3.353886291739e-12       0.000000000000e+00       9.499167343666e-12       1.336296350911e-12      -7.078609569267e-15 
  104       3.778287458239e-10       1.110362234402e-13      -3.442494817600e-12       0.000000000000e+00       9.259796598829e-12       1.309469216208e-12      -7.025227489733e-15 
  105       3.821084493208e-10       1.129171310518e-13      -3.530950152631e-12       0.000000000000e+00       9.027434142864e-12       1.283267309530e-12      -6.961860025559e-15 
  106       3.864121060434e-10       1.147698914832e-13      -3.619182692710e-12       0.000000000000e+00       8.802117243768e-12       1.257704553972e-12      -6.889462835954e-15 
  107       3.907394342807e-10       1.165927210715e-13      -3.707122049199e-12       0.000000000000e+00       8.583833900510e-12       1.232790331208e-12      -6.809084451147e-15 
