# dimensionless total lensed [l(l+1)/2pi] C_l's
# for l=2 to 5000, i.e. number of multipoles equal to 4999
#
# -> if you prefer output in CAMB/HealPix/LensPix units/order, set 'format' to 'camb' in input file
# -> if you don't want to see such a header, set 'headers' to 'no' in input file
# -> for CMB lensing (phi), these are C_l^phi-phi for the lensing potential.
#    Remember the conversion factors:
#    C_l^dd (deflection) = l(l+1) C_l^phi-phi
#    C_l^gg (shear/convergence) = 1/4 (l(l+1))^2 C_l^phi-phi
#
# 1:l     2:TT                     3:EE                     4:TE                     5:BB                     6:phiphi                 7:TPhi                   8:Ephi               
    2       2.842037411688e-10       7.781038246680e-15       5.606758742042e-13       4.782693280661e-15       8.330291776735e-09       4.600429207775e-10      -2.068990389465e-12 
    3       2.431763560661e-10       1.011011330776e-14       4.539409256747e-13       4.826525668392e-15       5.194432790085e-09       3.273331095944e-10      -1.658276977790e-12 
    4       2.243513008981e-10       9.704823627645e-15       3.879443367180e-13       4.206836667027e-15       3.619684344764e-09       2.481420745410e-10      -1.180849107873e-12 
    5       2.138605485059e-10       7.512414850295e-15       3.247015551336e-13       3.303134583926e-15       2.702882415112e-09       1.961504806652e-10      -7.539858147150e-13 
    6       2.069935784863e-10       4.957757448857e-15       2.622327800660e-13       2.402768431641e-15       2.110159207174e-09       1.596906248697e-10      -4.128664062653e-13 
    7       2.025192711189e-10       2.980944614129e-15       2.058662616120e-13       1.665177074152e-15       1.700385946006e-09       1.329088871209e-10      -1.664916600231e-13 
    8       1.996068798529e-10       1.836099582621e-15       1.591683309904e-13       1.144774694068e-15       1.404083555231e-09       1.125560361768e-10      -8.933238265543e-15 
    9       1.978133437852e-10       1.338590506893e-15       1.237638229574e-13       8.308248107962e-16       1.182265975754e-09       9.670847468062e-11       7.417563620772e-14 
   10       1.968140949824e-10       1.188636384375e-15       9.955129105640e-14       6.823193617387e-16       1.011023215535e-09       8.412785221305e-11       1.014173730933e-13 
   11       1.963560946103e-10       1.170261037291e-15       8.521189746407e-14       6.514567663543e-16       8.508482548257e-10       7.416380171410e-11       9.207978486147e-14 
   12       1.962574347248e-10       1.193754373939e-15       7.867456693213e-14       6.965120683727e-16       7.433572044354e-10       6.574702440268e-11       6.402289287116e-14 
   13       1.964948347000e-10       1.248443264301e-15       7.753266873076e-14       7.864891141774e-16       6.551249703195e-10       5.848316247613e-11       3.007721290829e-14 
   14       1.969565813127e-10       1.343550850074e-15       7.941454339309e-14       9.013065483254e-16       5.817186751523e-10       5.252279241809e-11      -1.712870710106e-17 
   15       1.975663575832e-10       1.478773429564e-15       8.250238188270e-14       1.029389888275e-15       5.199428104604e-10       4.753090545284e-11      -2.146156783449e-14 
   16       1.983384975546e-10       1.643587914020e-15       8.563172765263e-14       1.165203971206e-15       4.674249425399e-10       4.310743802822e-11      -3.311779898883e-14 
   17       1.992122278214e-10       1.828816685448e-15       8.806292720644e-14       1.305929925485e-15       4.223743675991e-10       3.920522722901e-11      -3.595638128279e-14 
   18       2.001488852666e-10       2.031876396294e-15       8.958964625233e-14       1.451147314041e-15       3.832746168261e-10       3.580204572968e-11      -3.256069916288e-14 
   19       2.011896893110e-10       2.256539445977e-15       9.036942329750e-14       1.600641373794e-15       3.495073259375e-10       3.286847967473e-11      -2.553185788149e-14 
   20       2.022934036019e-10       2.508010913546e-15       9.068440746695e-14       1.754196426576e-15       3.197691168502e-10       3.029558882488e-11      -1.792729724001e-14 
   21       2.034596442224e-10       2.788215629594e-15       9.077820545356e-14       1.911694289203e-15       2.935923782414e-10       2.801019788869e-11      -1.141207316647e-14 
   22       2.046463962481e-10       3.097302555180e-15       9.086653633968e-14       2.073117466579e-15       2.703506912080e-10       2.592167884989e-11      -7.146683883416e-15 
   23       2.058727155162e-10       3.434109445094e-15       9.096993217186e-14       2.238354640779e-15       2.497240690271e-10       2.404638331237e-11      -5.269847517090e-15 
   24       2.071371900453e-10       3.796786382752e-15       9.099216198827e-14       2.407291765715e-15       2.312350655976e-10       2.240521380122e-11      -5.411367291181e-15 
   25       2.084431583238e-10       4.185265156004e-15       9.071515218238e-14       2.579728514046e-15       2.146657508617e-10       2.095272339459e-11      -6.947523856392e-15 
   26       2.097682359768e-10       4.599897455287e-15       8.984085077323e-14       2.755462061548e-15       1.997159556407e-10       1.961131029730e-11      -9.058631099482e-15 
   27       2.111164141068e-10       5.040991207358e-15       8.810689622933e-14       2.934329003178e-15       1.862069243070e-10       1.837044904581e-11      -1.112504790264e-14 
   28       2.124819460371e-10       5.508870197598e-15       8.526207351296e-14       3.116177857163e-15       1.739064979946e-10       1.723189871942e-11      -1.259319141584e-14 
   29       2.138804049147e-10       6.004424402772e-15       8.120276340850e-14       3.300767613561e-15       1.627515653797e-10       1.619572663228e-11      -1.331859634177e-14 
   30       2.153109379044e-10       6.528760154420e-15       7.587425341081e-14       3.487828217879e-15       1.526215846325e-10       1.525173213897e-11      -1.329934169185e-14 
   31       2.167531222753e-10       7.083014700250e-15       6.924101186708e-14       3.677093255788e-15       1.433091596726e-10       1.438180117987e-11      -1.259477038382e-14 
   32       2.182157736199e-10       7.668209823094e-15       6.132546697751e-14       3.868326950571e-15       1.347662975822e-10       1.358245294285e-11      -1.142513217216e-14 
   33       2.197015072753e-10       8.285344814587e-15       5.218674159016e-14       4.061307863353e-15       1.269330153728e-10       1.284913505787e-11      -1.011955756019e-14 
   34       2.212002617538e-10       8.935391424453e-15       4.189170587144e-14       4.255812127659e-15       1.197001075209e-10       1.217250400167e-11      -9.020896432432e-15 
   35       2.227195021713e-10       9.619145710618e-15       3.044219585301e-14       4.451577611035e-15       1.130304867961e-10       1.154848217164e-11      -8.221205149387e-15 
   36       2.242613960507e-10       1.033731871745e-14       1.782309950566e-14       4.648326810909e-15       1.068703957800e-10       1.097076264437e-11      -7.735470777808e-15 
   37       2.258191284321e-10       1.109054611871e-14       4.015297310402e-15       4.845788395258e-15       1.011394086766e-10       1.043054712392e-11      -7.557882397883e-15 
   38       2.273972127052e-10       1.187930235126e-14      -1.102546600316e-14       5.043740433939e-15       9.582269064448e-11       9.926410918363e-12      -7.618843725607e-15 
   39       2.289956586351e-10       1.270394841323e-14      -2.735512848371e-14       5.241981797514e-15       9.090341680114e-11       9.457142165054e-12      -7.811129610247e-15 
   40       2.306030780481e-10       1.356474660860e-14      -4.503640948908e-14       5.440321319347e-15       8.633471772795e-11       9.018791309811e-12      -7.998944122113e-15 
   41       2.322043931239e-10       1.446194832214e-14      -6.413193991274e-14       5.638558175048e-15       8.205600764997e-11       8.606177443817e-12      -8.052619746820e-15 
   42       2.338097149964e-10       1.539610714425e-14      -8.467954756730e-14       5.836413974431e-15       7.805466219223e-11       8.218578202937e-12      -7.970878244060e-15 
   43       2.354329505853e-10       1.636785687195e-14      -1.067099175670e-13       6.033579518651e-15       7.432000741896e-11       7.855485230894e-12      -7.795164463372e-15 
   44       2.370832474006e-10       1.737782616516e-14      -1.302534313478e-13       6.229732275122e-15       7.082480949053e-11       7.514896613247e-12      -7.577078778630e-15 
   45       2.387653307097e-10       1.842656251912e-14      -1.553333538281e-13       6.424551461891e-15       6.753499432798e-11       7.194116101224e-12      -7.368794643590e-15 
   46       2.404818868179e-10       1.951427699410e-14      -1.819427943081e-13       6.617770610845e-15       6.444537760794e-11       6.892722233533e-12      -7.189445910592e-15 
   47       2.422309888492e-10       2.064102322984e-14      -2.100609817774e-13       6.809139323920e-15       6.155237465008e-11       6.610280039246e-12      -7.049736712436e-15 
   48       2.440048216999e-10       2.180676265037e-14      -2.396592374122e-13       6.998408826364e-15       5.884322547743e-11       6.345430510178e-12      -6.961293425225e-15 
   49       2.457892009302e-10       2.301136011871e-14      -2.707006509102e-13       7.185332062654e-15       5.629531248239e-11       6.095822043545e-12      -6.936692347333e-15 
   50       2.475696186073e-10       2.425461053315e-14      -3.031505619002e-13       7.369665509561e-15       5.388297199941e-11       5.858834750127e-12      -6.984966052904e-15 
   51       2.493524316778e-10       2.553633720804e-14      -3.370121091269e-13       7.551174972981e-15       5.160169174103e-11       5.634144210455e-12      -7.096620270216e-15 
   52       2.511485933136e-10       2.685631268618e-14      -3.722997712156e-13       7.729631530382e-15       4.944930202620e-11       5.421735115677e-12      -7.254597849124e-15 
   53       2.529674588014e-10       2.821422731046e-14      -4.090295853870e-13       7.904810123711e-15       4.741873407393e-11       5.221138719675e-12      -7.438263929630e-15 
   54       2.548166115841e-10       2.960968633461e-14      -4.472193322666e-13       8.076489736119e-15       4.549769032370e-11       5.031401593034e-12      -7.623220852602e-15 
   55       2.567015984998e-10       3.104226317692e-14      -4.868841298475e-13       8.244461814664e-15       4.367239340379e-11       4.851381423810e-12      -7.787014542403e-15 
   56       2.586254569974e-10       3.251168129245e-14      -5.280215102420e-13       8.408557583834e-15       4.194067891107e-11       4.680792052808e-12      -7.928337716101e-15 
   57       2.605887657705e-10       3.401767242103e-14      -5.706229593818e-13       8.568627826833e-15       4.030157769918e-11       4.519363317616e-12      -8.052272965267e-15 
   58       2.625895516378e-10       3.555992371612e-14      -6.146781888719e-13       8.724535721235e-15       3.875135514296e-11       4.366518649977e-12      -8.164862726433e-15 
   59       2.646231120480e-10       3.713807704302e-14      -6.601751419353e-13       8.876157336974e-15       3.728334036730e-11       4.221356571831e-12      -8.273153729680e-15 
   60       2.666818375833e-10       3.875172827690e-14      -7.070999993577e-13       9.023382134342e-15       3.588775547591e-11       4.082632191370e-12      -8.385241447216e-15 
   61       2.687581848764e-10       4.040040657780e-14      -7.554385956634e-13       9.166108785773e-15       3.455442974397e-11       3.949102507273e-12      -8.508230940619e-15 
   62       2.708547766866e-10       4.208350836716e-14      -8.051810256509e-13       9.304230418658e-15       3.328204045040e-11       3.820694754420e-12      -8.641483986998e-15 
   63       2.729762642421e-10       4.380034721865e-14      -8.563180870985e-13       9.437646928747e-15       3.207065265271e-11       3.697568663812e-12      -8.781928174446e-15 
   64       2.751263008794e-10       4.555017126299e-14      -9.088400114595e-13       9.566269706761e-15       3.091893959078e-11       3.579768972895e-12      -8.925985516830e-15 
   65       2.773074645072e-10       4.733216185070e-14      -9.627365145527e-13       9.690021988014e-15       2.982410345340e-11       3.467218464971e-12      -9.069550791279e-15 
   66       2.795211800713e-10       4.914543221499e-14      -1.017996847253e-12       9.808839202033e-15       2.878179614478e-11       3.359711008605e-12      -9.207969875673e-15 
   67       2.817676420191e-10       5.098902613449e-14      -1.074609846179e-12       9.922669322182e-15       2.778604005110e-11       3.256904597037e-12      -9.336018086132e-15 
   68       2.840466994480e-10       5.286192051354e-14      -1.132562255310e-12       1.003146569197e-14       2.683082368214e-11       3.158427444486e-12      -9.448797548748e-15 
   69       2.863608931361e-10       5.476303671896e-14      -1.191833182590e-12       1.013516303451e-14       2.591544115154e-11       3.064236797895e-12      -9.544688883168e-15 
   70       2.887128974330e-10       5.669122914876e-14      -1.252398605985e-12       1.023369718772e-14       2.504009724840e-11       2.974320659640e-12      -9.622961440323e-15 
   71       2.911045600592e-10       5.864528030315e-14      -1.314233009532e-12       1.032701235184e-14       2.420429254464e-11       2.888587167346e-12      -9.682908995996e-15 
   72       2.935368491914e-10       6.062389954752e-14      -1.377309389805e-12       1.041506124673e-14       2.340678699725e-11       2.806860524780e-12      -9.723851593013e-15 
   73       2.960098005484e-10       6.262572187546e-14      -1.441599262383e-12       1.049780526902e-14       2.264556355046e-11       2.728876932740e-12      -9.745137383448e-15 
   74       2.985224644762e-10       6.464930667176e-14      -1.507072668319e-12       1.057521464932e-14       2.191779173797e-11       2.654280519941e-12      -9.746144470825e-15 
   75       3.010728530339e-10       6.669313647536e-14      -1.573698180612e-12       1.064726860949e-14       2.121979128517e-11       2.582619273908e-12      -9.726282752313e-15 
   76       3.036589739845e-10       6.875567324339e-14      -1.641443315846e-12       1.071395388034e-14       2.054794517325e-11       2.513454995078e-12      -9.685278867767e-15 
   77       3.062822674177e-10       7.083554172246e-14      -1.710275841506e-12       1.077525959553e-14       1.990171151386e-11       2.446725302217e-12      -9.624086963854e-15 
   78       3.089447025889e-10       7.293137742395e-14      -1.780162719921e-12       1.083118174786e-14       1.928109732867e-11       2.382440554385e-12      -9.544148130683e-15 
   79       3.116477164781e-10       7.504177203259e-14      -1.851069738769e-12       1.088172486767e-14       1.868574115726e-11       2.320573981061e-12      -9.447129552597e-15 
   80       3.143921831634e-10       7.716527334850e-14      -1.922961525854e-12       1.092690214649e-14       1.811489612890e-11       2.261059951175e-12      -9.334932155708e-15 
   81       3.171783831948e-10       7.930038522935e-14      -1.995801563885e-12       1.096673556056e-14       1.756741303420e-11       2.203792242131e-12      -9.209698255437e-15 
   82       3.200059729674e-10       8.144556753246e-14      -2.069552205252e-12       1.100125599446e-14       1.704172339684e-11       2.148622308839e-12      -9.073819204045e-15 
   83       3.228739540949e-10       8.359923605684e-14      -2.144174686801e-12       1.103050336469e-14       1.653582254522e-11       2.095357552740e-12      -8.929943038169e-15 
   84       3.257812995651e-10       8.575976052467e-14      -2.219628799668e-12       1.105452289544e-14       1.604775656615e-11       2.043810883050e-12      -8.780752917687e-15 
   85       3.287290185617e-10       8.792545826774e-14      -2.295871803517e-12       1.107335296576e-14       1.557721299981e-11       1.993962632385e-12      -8.628243488426e-15 
   86       3.317183793852e-10       9.009459938331e-14      -2.372859358563e-12       1.108703546489e-14       1.512416403721e-11       1.945822434465e-12      -8.474338019323e-15 
   87       3.347502638068e-10       9.226540851226e-14      -2.450545863355e-12       1.109561951910e-14       1.468837774948e-11       1.899379462370e-12      -8.321110684307e-15 
   88       3.378251474793e-10       9.443606474821e-14      -2.528884463761e-12       1.109916155055e-14       1.426940962814e-11       1.854601559615e-12      -8.170790357580e-15 
   89       3.409430803495e-10       9.660470154669e-14      -2.607827061944e-12       1.109772533625e-14       1.386659412545e-11       1.811434371235e-12      -8.025764408911e-15 
   90       3.441036670699e-10       9.876940663427e-14      -2.687324325339e-12       1.109138206697e-14       1.347903619468e-11       1.769800474866e-12      -7.888582498926e-15 
   91       3.473060474101e-10       1.009282219177e-13      -2.767325695639e-12       1.108021040614e-14       1.310560283042e-11       1.729598511827e-12      -7.761960374393e-15 
   92       3.505488766692e-10       1.030791433932e-13      -2.847779397769e-12       1.106429654882e-14       1.274491460889e-11       1.690702318203e-12      -7.648783663511e-15 
   93       3.538308719843e-10       1.052201699466e-13      -2.928632846963e-12       1.104373010976e-14       1.239567275769e-11       1.652991199733e-12      -7.551364024891e-15 
   94       3.571525877911e-10       1.073494583476e-13      -3.009833920518e-12       1.101859095239e-14       1.205771501005e-11       1.616447852390e-12      -7.469071376583e-15 
   95       3.605148724186e-10       1.094651915075e-13      -3.091329894807e-12       1.098896047860e-14       1.173110364891e-11       1.581073631052e-12      -7.400350914219e-15 
   96       3.639183143234e-10       1.115655322372e-13      -3.173067078469e-12       1.095492562478e-14       1.141580032460e-11       1.546858282417e-12      -7.343432646105e-15 
   97       3.673632302691e-10       1.136486238276e-13      -3.254990826862e-12       1.091657886345e-14       1.111166220088e-11       1.513779503598e-12      -7.296324925694e-15 
   98       3.708496535064e-10       1.157125906297e-13      -3.337045556498e-12       1.087401820491e-14       1.081843810105e-11       1.481802500702e-12      -7.256807984054e-15 
   99       3.743773219527e-10       1.177555386351e-13      -3.419174759495e-12       1.082734719895e-14       1.053576465394e-11       1.450879547427e-12      -7.222427462342e-15 
  100       3.779456663719e-10       1.197755560563e-13      -3.501321018013e-12       1.077667493652e-14       1.026316244002e-11       1.420949543644e-12      -7.190487944270e-15 
  101       3.815537985542e-10       1.217707139068e-13      -3.583426018707e-12       1.072211605135e-14       1.000003213744e-11       1.391937573986e-12      -7.158046488578e-15 
  102       3.852004994962e-10       1.237390665813e-13      -3.665430567161e-12       1.066379072167e-14       9.745650668097e-12       1.363754466435e-12      -7.121906161508e-15 
  103       3.888842075799e-10       1.256786524362e-13      -3.747274602342e-12       1.060182467188e-14       9.499167343666e-12       1.336296350911e-12      -7.078609569267e-15 
  104       3.926034360549e-10       1.275875348788e-13      -3.828897418414e-12       1.053634438723e-14       9.259796598829e-12       1.309469216208e-12      -7.025227489733e-15 
  105       3.963581151688e-10       1.294639307063e-13      -3.910238333228e-12       1.046746201828e-14       9.027434142864e-12       1.283267309530e-12      -6.961860025559e-15 
  106       4.001484101468e-10       1.313061002662e-13      -3.991236137484e-12       1.039528843087e-14       8.802117243768e-12       1.257704553972e-12      -6.889462835954e-15 
  107       4.039743010626e-10       1.331123095083e-13      -4.071828911941e-12       1.031993776070e-14       8.583833900510e-12       1.232790331208e-12      -6.809084451147e-15 
