# dimensionless total [l(l+1)/2pi] C_l's
# for l=2 to 5500, i.e. number of multipoles equal to 5499
#
# -> if you prefer output in CAMB/HealPix/LensPix units/order, set 'format' to 'camb' in input file
# -> if you don't want to see such a header, set 'headers' to 'no' in input file
# -> for CMB lensing (phi), these are C_l^phi-phi for the lensing potential.
#    Remember the conversion factors:
#    C_l^dd (deflection) = l(l+1) C_l^phi-phi
#    C_l^gg (shear/convergence) = 1/4 (l(l+1))^2 C_l^phi-phi
#
# 1:l     2:TT                     3:EE                     4:TE                     5:BB                     6:phiphi                 7:TPhi                   8:Ephi               
    2       2.867173424203e-10       7.832487335775e-15       5.600619474952e-13       4.820520023267e-15       8.259505829493e-09       4.777385283509e-10      -2.071092925835e-12 
    3       2.452644830580e-10       1.012404008115e-14       4.541094530110e-13       4.846633618499e-15       5.138495685676e-09       3.389982481551e-10      -1.656448178206e-12 
    4       2.260293479283e-10       9.658966438563e-15       3.885003137817e-13       4.207078056728e-15       3.579671303050e-09       2.566816432173e-10      -1.174670194363e-12 
    5       2.152048587059e-10       7.426390007474e-15       3.251849710448e-13       3.288867196738e-15       2.672363614400e-09       2.027037445315e-10      -7.450908172322e-13 
    6       2.080948624896e-10       4.868143626582e-15       2.624966708960e-13       2.381578591836e-15       2.085795600785e-09       1.648882440877e-10      -4.032475456327e-13 
    7       2.034530471026e-10       2.913903063172e-15       2.059387570912e-13       1.643347284678e-15       1.681094726049e-09       1.372057750918e-10      -1.578510121466e-13 
    8       2.004258494183e-10       1.797599462043e-15       1.590939199046e-13       1.126208517925e-15       1.388912394938e-09       1.162081255123e-10      -2.420216089125e-15 
    9       1.985342119734e-10       1.320394894404e-15       1.236103881087e-13       8.171198763997e-16       1.169910010406e-09       9.979643711575e-11       7.807528954186e-14 
   10       1.974317419572e-10       1.179641445380e-15       9.945703614440e-14       6.732527986578e-16       1.000389246758e-09       8.672195349183e-11       1.028310363454e-13 
   11       1.968906033765e-10       1.163409118590e-15       8.531241065352e-14       6.462329776259e-16       8.429033997325e-10       7.646417506440e-11       9.163908483827e-14 
   12       1.968093599264e-10       1.187712767316e-15       7.896716567514e-14       6.936263791493e-16       7.364887522696e-10       6.771308365420e-11       6.223039883108e-14 
   13       1.970104554395e-10       1.243864486359e-15       7.786211034592e-14       7.850093209216e-16       6.491348994690e-10       6.044253922840e-11       2.813935668783e-14 
   14       1.973986575073e-10       1.341184505546e-15       7.973613185010e-14       9.002120151344e-16       5.764501633832e-10       5.413735676643e-11      -1.837797198141e-15 
   15       1.979848143588e-10       1.477966102449e-15       8.283316556196e-14       1.028273003427e-15       5.152699375388e-10       4.883836663579e-11      -2.274761002267e-14 
   16       1.987646434556e-10       1.643611755874e-15       8.586672307272e-14       1.163635934563e-15       4.632529527546e-10       4.435677937665e-11      -3.353113882736e-14 
   17       1.995927099446e-10       1.829231548802e-15       8.818384757948e-14       1.303910800739e-15       4.186310163851e-10       4.049241472860e-11      -3.554325775333e-14 
   18       2.005179128833e-10       2.033115300193e-15       8.965179866436e-14       1.448567132515e-15       3.799003222546e-10       3.701173052884e-11      -3.167224905060e-14 
   19       2.015707534514e-10       2.259285564937e-15       9.040842642059e-14       1.597371977710e-15       3.464474432118e-10       3.391111474030e-11      -2.449217288832e-14 
   20       2.026526011537e-10       2.512864780449e-15       9.069622038505e-14       1.750198123319e-15       3.169836990073e-10       3.119460973274e-11      -1.690497895422e-14 
   21       2.037872881824e-10       2.795443050674e-15       9.078344836271e-14       1.906932926885e-15       2.910466144350e-10       2.882836870062e-11      -1.050920491440e-14 
   22       2.049783571901e-10       3.106761463138e-15       9.092209641210e-14       2.067538084929e-15       2.680158682314e-10       2.672362304386e-11      -6.425660719985e-15 
   23       2.062199004850e-10       3.445685816702e-15       9.108884344469e-14       2.231907912586e-15       2.475747935270e-10       2.483447892109e-11      -4.802532156555e-15 
   24       2.074679734220e-10       3.810531777283e-15       9.112085909174e-14       2.399944678699e-15       2.292508454663e-10       2.310864564578e-11      -5.281588660815e-15 
   25       2.087459025715e-10       4.201213698623e-15       9.080378814458e-14       2.571466545243e-15       2.128288460426e-10       2.154201113125e-11      -7.177662371223e-15 
   26       2.100673760520e-10       4.618058020711e-15       8.986295236403e-14       2.746272511053e-15       1.980120486833e-10       2.013031278897e-11      -9.568840968849e-15 
   27       2.114274800979e-10       5.061605844600e-15       8.802509818491e-14       2.924112276744e-15       1.846228121861e-10       1.886178365604e-11      -1.171142088299e-14 
   28       2.127986181298e-10       5.532461163789e-15       8.502214226403e-14       3.104732120500e-15       1.724302834545e-10       1.771258100846e-11      -1.295362974374e-14 
   29       2.141947246255e-10       6.031444564888e-15       8.076461668088e-14       3.287915842897e-15       1.613721337354e-10       1.667046007253e-11      -1.326813467764e-14 
   30       2.156204171845e-10       6.559444027185e-15       7.522700368880e-14       3.473472593126e-15       1.513295293628e-10       1.571470579493e-11      -1.287817384045e-14 
   31       2.170606549599e-10       7.117391511793e-15       6.840227597547e-14       3.661215667999e-15       1.420975484128e-10       1.481742122492e-11      -1.206309284548e-14 
   32       2.185232186118e-10       7.706399350972e-15       6.030791373552e-14       3.850903894926e-15       1.336285762708e-10       1.397938839969e-11      -1.101087893200e-14 
   33       2.200071820968e-10       8.327679842220e-15       5.098482751551e-14       4.042278453018e-15       1.258628512167e-10       1.320621313824e-11      -9.918431258744e-15 
   34       2.214992660150e-10       8.982398347596e-15       4.048304775454e-14       4.235077119295e-15       1.186918344156e-10       1.249855098860e-11      -8.991199547271e-15 
   35       2.230084397933e-10       9.671272371442e-15       2.881178368752e-14       4.429032247354e-15       1.120788387942e-10       1.185240296943e-11      -8.296751489989e-15 
   36       2.245402763484e-10       1.039482415008e-14       1.597280717143e-14       4.623871487915e-15       1.059707914254e-10       1.125794257489e-11      -7.860908599617e-15 
   37       2.260914425263e-10       1.115351850930e-14       1.960793271968e-15       4.819326981358e-15       1.002881798475e-10       1.070268665334e-11      -7.691193101431e-15 
   38       2.276675375778e-10       1.194789966484e-14      -1.328126598178e-14       5.015166324279e-15       9.501631821369e-11       1.018460762677e-11      -7.726658849449e-15 
   39       2.292689405501e-10       1.277849054505e-14      -2.983311948987e-14       5.211172067161e-15       9.013848262614e-11       9.702745442965e-12      -7.869274970840e-15 
   40       2.308845686719e-10       1.364575083887e-14      -4.778649760988e-14       5.407133939665e-15       8.560815023010e-11       9.253383560354e-12      -7.995142547508e-15 
   41       2.324990931543e-10       1.455010064486e-14      -6.722844509873e-14       5.602834244016e-15       8.136520683719e-11       8.831448700035e-12      -7.986927638292e-15 
   42       2.341201655858e-10       1.549201068639e-14      -8.818259430998e-14       5.797997361477e-15       7.739716379392e-11       8.435847063722e-12      -7.847994789890e-15 
   43       2.357581264590e-10       1.647193445643e-14      -1.106503149566e-13       5.992324477190e-15       7.369349429598e-11       8.065452879544e-12      -7.622531661295e-15 
   44       2.374178484023e-10       1.749028072900e-14      -1.346263582563e-13       6.185506542680e-15       7.022726393849e-11       7.717484075909e-12      -7.365217967918e-15 
   45       2.391004446141e-10       1.854738794332e-14      -1.601016417521e-13       6.377235276471e-15       6.696475125922e-11       7.388523383456e-12      -7.131119960076e-15 
   46       2.408103503516e-10       1.964344357052e-14      -1.870732932180e-13       6.567241582339e-15       6.390081708394e-11       7.078256506864e-12      -6.940287022874e-15 
   47       2.425493861139e-10       2.077853678141e-14      -2.155371066182e-13       6.755267537699e-15       6.103188741788e-11       6.786627141773e-12      -6.803642192794e-15 
   48       2.443142324274e-10       2.195267618115e-14      -2.454846071983e-13       6.941055790741e-15       5.834528545351e-11       6.512717186186e-12      -6.732809870308e-15 
   49       2.460959894993e-10       2.316578619584e-14      -2.769029332677e-13       7.124349596228e-15       5.581855470520e-11       6.254681237377e-12      -6.740127374517e-15 
   50       2.478846574322e-10       2.441772978164e-14      -3.097784392256e-13       7.304895960793e-15       5.342622068615e-11       6.010328151319e-12      -6.833724421350e-15 
   51       2.496850321373e-10       2.570839220209e-14      -3.441089318723e-13       7.482456002223e-15       5.116381000409e-11       5.779203787154e-12      -7.001160184449e-15 
   52       2.515043630220e-10       2.703761374520e-14      -3.798945511602e-13       7.656797463976e-15       4.902918097419e-11       5.560960374060e-12      -7.221364672322e-15 
   53       2.533476057061e-10       2.840516307018e-14      -4.171343947937e-13       7.827692029273e-15       4.701533584116e-11       5.354724638141e-12      -7.468967300465e-15 
   54       2.552172132317e-10       2.981073483276e-14      -4.558265751291e-13       7.994915503228e-15       4.511009396285e-11       5.159062749345e-12      -7.714076348277e-15 
   55       2.571141809827e-10       3.125397140062e-14      -4.959693041774e-13       8.158258406942e-15       4.329980672633e-11       4.972413280397e-12      -7.929345900667e-15 
   56       2.590419637398e-10       3.273453975717e-14      -5.375643338958e-13       8.317560424438e-15       4.158233170557e-11       4.794592338762e-12      -8.113737754564e-15 
   57       2.610031659934e-10       3.425206954288e-14      -5.806144702033e-13       8.472684832103e-15       3.995670911852e-11       4.625600943534e-12      -8.274276181581e-15 
   58       2.629982170259e-10       3.580612923415e-14      -6.251227146016e-13       8.623509411479e-15       3.841923681896e-11       4.465173320085e-12      -8.419339630708e-15 
   59       2.650252109672e-10       3.739622470716e-14      -6.710923611315e-13       8.769927037055e-15       3.696330095030e-11       4.312760081205e-12      -8.558724113210e-15 
   60       2.670797468501e-10       3.902179780182e-14      -7.185270933283e-13       8.911846264064e-15       3.557920659923e-11       4.167511408248e-12      -8.703706587515e-15 
   61       2.691571653576e-10       4.068223857966e-14      -7.674276972426e-13       9.049181957415e-15       3.425686889888e-11       4.028530699999e-12      -8.863873715517e-15 
   62       2.712602075945e-10       4.237692856166e-14      -8.177811189994e-13       9.181823390761e-15       3.299497531276e-11       3.895740099319e-12      -9.036632934506e-15 
   63       2.733927994084e-10       4.410520469139e-14      -8.695691119628e-13       9.309659997388e-15       3.179358877522e-11       3.769180282037e-12      -9.215448795750e-15 
   64       2.755577241567e-10       4.586634551565e-14      -9.227713937283e-13       9.432590963644e-15       3.065139168806e-11       3.648749058618e-12      -9.392831370496e-15 
   65       2.777565388072e-10       4.765957018285e-14      -9.773656357091e-13       9.550525500742e-15       2.956560733416e-11       3.534193137042e-12      -9.560297002539e-15 
   66       2.799894900392e-10       4.948403744140e-14      -1.033327452722e-12       9.663383116570e-15       2.853192129106e-11       3.425099885689e-12      -9.708329060800e-15 
   67       2.822554303436e-10       5.133884463811e-14      -1.090630392574e-12       9.771093887500e-15       2.754440284462e-11       3.320889096216e-12      -9.826338691899e-15 
   68       2.845530003462e-10       5.322301360410e-14      -1.149247796477e-12       9.873595562782e-15       2.659708805355e-11       3.220969150091e-12      -9.905099457296e-15 
   69       2.868846415080e-10       5.513544723026e-14      -1.209158841314e-12       9.970823588862e-15       2.568927709281e-11       3.125260675622e-12      -9.944711830065e-15 
   70       2.892532495192e-10       5.707496225309e-14      -1.270343708614e-12       1.006271954273e-14       2.482117404726e-11       3.033764687632e-12      -9.948189423922e-15 
   71       2.916609294263e-10       5.904030027568e-14      -1.332781858811e-12       1.014923430786e-14       2.399228479105e-11       2.946403611957e-12      -9.919151491030e-15 
   72       2.941089441174e-10       6.103012643073e-14      -1.396452068676e-12       1.023032826500e-14       2.320138089869e-11       2.863017253031e-12      -9.861846945276e-15 
   73       2.965976628065e-10       6.304302804365e-14      -1.461332468757e-12       1.030597148300e-14       2.244646355614e-11       2.783358761457e-12      -9.781178385549e-15 
   74       2.991265095193e-10       6.507751329552e-14      -1.527400580803e-12       1.037614390957e-14       2.172472747186e-11       2.707090601592e-12      -9.682726119022e-15 
   75       3.016939115773e-10       6.713200988620e-14      -1.594633355204e-12       1.044083556212e-14       2.103252478792e-11       2.633780519120e-12      -9.572772184427e-15 
   76       3.042982340688e-10       6.920492576147e-14      -1.663005490007e-12       1.050004293062e-14       2.036627006009e-11       2.563008424695e-12      -9.457282855715e-15 
   77       3.069408938662e-10       7.129484703476e-14      -1.732483951324e-12       1.055375700732e-14       1.972542549587e-11       2.494718460437e-12      -9.338588839155e-15 
   78       3.096237225106e-10       7.340037389605e-14      -1.803032517060e-12       1.060197341071e-14       1.910999705190e-11       2.428924106643e-12      -9.218140527004e-15 
   79       3.123479998123e-10       7.552006168645e-14      -1.874613408844e-12       1.064469609104e-14       1.851962513844e-11       2.365601231695e-12      -9.097498434244e-15 
   80       3.151144225543e-10       7.765242083380e-14      -1.947187294225e-12       1.068193744350e-14       1.795356782785e-11       2.304686334062e-12      -8.978335864656e-15 
   81       3.179230731960e-10       7.979591678847e-14      -2.020713288870e-12       1.071371842128e-14       1.741068406302e-11       2.246074784299e-12      -8.862441576901e-15 
   82       3.207733885761e-10       8.194896995901e-14      -2.095148958755e-12       1.074006864876e-14       1.688941686585e-11       2.189619067056e-12      -8.751722450591e-15 
   83       3.236641286160e-10       8.410995564793e-14      -2.170450322366e-12       1.076102653457e-14       1.638777654570e-11       2.135127023074e-12      -8.648206152370e-15 
   84       3.265940606803e-10       8.627720552465e-14      -2.246572553126e-12       1.077663630971e-14       1.590382393021e-11       2.082410406602e-12      -8.553486911531e-15 
   85       3.295642115654e-10       8.844901246601e-14      -2.323472215672e-12       1.078693832972e-14       1.543724888324e-11       2.031443657520e-12      -8.466951440366e-15 
   86       3.325759331979e-10       9.062362640411e-14      -2.401105406054e-12       1.079197736470e-14       1.498802390199e-11       1.982228349448e-12      -8.387262429671e-15 
   87       3.356302011863e-10       9.279925282246e-14      -2.479427098226e-12       1.079180559204e-14       1.455591909727e-11       1.934744315663e-12      -8.312882695154e-15 
   88       3.387275955523e-10       9.497405271754e-14      -2.558391158006e-12       1.078648265779e-14       1.414049380568e-11       1.888948736740e-12      -8.242068484006e-15 
   89       3.418682814617e-10       9.714614256035e-14      -2.637950357041e-12       1.077607573816e-14       1.374108820180e-11       1.844775228192e-12      -8.172862781479e-15 
   90       3.450519899563e-10       9.931359425795e-14      -2.718056386775e-12       1.076065960094e-14       1.335681491040e-11       1.802132928106e-12      -8.103088617452e-15 
   91       3.482779986843e-10       1.014744351150e-13      -2.798659872410e-12       1.074031666694e-14       1.298655061862e-11       1.760905584784e-12      -8.030342373007e-15 
   92       3.515451126322e-10       1.036266477955e-13      -2.879710386872e-12       1.071513707144e-14       1.262892768817e-11       1.720950644385e-12      -7.951987087000e-15 
   93       3.548521754371e-10       1.057682154225e-13      -2.961156346118e-12       1.068521400222e-14       1.228265841557e-11       1.682134864299e-12      -7.865840452250e-15 
   94       3.581997331470e-10       1.078972647223e-13      -3.042944646726e-12       1.065062877811e-14       1.194758181814e-11       1.644449261995e-12      -7.772371707446e-15 
   95       3.615885862283e-10       1.100119444382e-13      -3.125020999360e-12       1.061146362939e-14       1.162375950906e-11       1.607909848068e-12      -7.672824319888e-15 
   96       3.650192694556e-10       1.121103826839e-13      -3.207330054747e-12       1.056780621793e-14       1.131115330685e-11       1.572522235455e-12      -7.568553540669e-15 
   97       3.684920399258e-10       1.141906875243e-13      -3.289815416008e-12       1.051974963380e-14       1.100962141376e-11       1.538281228459e-12      -7.461029247131e-15 
   98       3.720068650726e-10       1.162509475571e-13      -3.372419650997e-12       1.046739239183e-14       1.071891459420e-11       1.505170411765e-12      -7.351838785335e-15 
   99       3.755634106809e-10       1.182892324935e-13      -3.455084304633e-12       1.041083842827e-14       1.043867235313e-11       1.473161739469e-12      -7.242689812518e-15 
  100       3.791610289011e-10       1.203035937397e-13      -3.537749911240e-12       1.035019709737e-14       1.016841911447e-11       1.442215124096e-12      -7.135413139561e-15 
  101       3.827987462637e-10       1.222920649778e-13      -3.620356006880e-12       1.028558316799e-14       9.907560399449e-12       1.412278025625e-12      -7.031965573447e-15 
  102       3.864752516937e-10       1.242526627473e-13      -3.702841141689e-12       1.021711682019e-14       9.655379005087e-12       1.383285040507e-12      -6.934432759728e-15 
  103       3.901888845249e-10       1.261833870258e-13      -3.785142892213e-12       1.014492364187e-14       9.411031182534e-12       1.355157490693e-12      -6.845032024985e-15 
  104       3.939380710355e-10       1.280822659534e-13      -3.867198399098e-12       1.006913020936e-14       9.173737767417e-12       1.327821431530e-12      -6.765586546474e-15 
  105       3.977227270299e-10       1.299474956321e-13      -3.948946036305e-12       9.989850156608e-15       8.943395206609e-12       1.301265331095e-12      -6.695860841840e-15 
  106       4.015430232626e-10       1.317773203826e-13      -4.030323991429e-12       9.907196209057e-15       8.720040331961e-12       1.275489452592e-12      -6.635004680744e-15 
  107       4.053989468647e-10       1.335699913411e-13      -4.111269778369e-12       9.821284380304e-15       8.503661120151e-12       1.250487925198e-12      -6.582058747460e-15 
