# dimensionless total [l(l+1)/2pi] C_l's
# for l=2 to 5500, i.e. number of multipoles equal to 5499
#
# -> if you prefer output in CAMB/HealPix/LensPix units/order, set 'format' to 'camb' in input file
# -> if you don't want to see such a header, set 'headers' to 'no' in input file
# -> for CMB lensing (phi), these are C_l^phi-phi for the lensing potential.
#    Remember the conversion factors:
#    C_l^dd (deflection) = l(l+1) C_l^phi-phi
#    C_l^gg (shear/convergence) = 1/4 (l(l+1))^2 C_l^phi-phi
#
# 1:l     2:TT                     3:EE                     4:TE                     5:BB                     6:phiphi                 7:TPhi                   8:Ephi               
    2       2.805292993869e-10       7.579322538370e-15       5.418556364173e-13       4.844285671575e-15       8.039324053458e-09       4.555586465759e-10      -1.970213921734e-12 
    3       2.393698449684e-10       9.802177084404e-15       4.314685113332e-13       4.873654104707e-15       5.019594852863e-09       3.241122420407e-10      -1.582256109394e-12 
    4       2.206731003962e-10       9.386100604650e-15       3.668658995214e-13       4.235329499376e-15       3.503177416132e-09       2.457944630920e-10      -1.126600381330e-12 
    5       2.103384285196e-10       7.250755240733e-15       3.066888393975e-13       3.315591957120e-15       2.618919380892e-09       1.944245176507e-10      -7.179089043164e-13 
    6       2.036098148763e-10       4.777700099583e-15       2.476496424837e-13       2.404324045215e-15       2.046377648160e-09       1.584061663634e-10      -3.910636314273e-13 
    7       1.992455253639e-10       2.872317401448e-15       1.943929637234e-13       1.660900832533e-15       1.650507551526e-09       1.319094240844e-10      -1.552298463642e-13 
    8       1.964119828501e-10       1.774068269908e-15       1.502090697028e-13       1.138329054228e-15       1.364307859620e-09       1.117586265225e-10      -4.899289353052e-15 
    9       1.946832621087e-10       1.299931853784e-15       1.166675966792e-13       8.243694381250e-16       1.149825646533e-09       9.608445818087e-11       7.377185291819e-14 
   10       1.937434825721e-10       1.159248208927e-15       9.374351976485e-14       6.766787998966e-16       9.838989407707e-10       8.363017702854e-11       9.878484514161e-14 
   11       1.932949897864e-10       1.144580359378e-15       8.023848805789e-14       6.467343548882e-16       8.284978805178e-10       7.371183644030e-11       8.882545710597e-14 
   12       1.932650567670e-10       1.170956298667e-15       7.411881369474e-14       6.922760023797e-16       7.242138551571e-10       6.530245578566e-11       6.105383938426e-14 
   13       1.935177617182e-10       1.228338702256e-15       7.304953056998e-14       7.824121247669e-16       6.385713851388e-10       5.822395559229e-11       2.814021823955e-14 
   14       1.939804025766e-10       1.325398470674e-15       7.485449693218e-14       8.968493009499e-16       5.672802479343e-10       5.227947828572e-11      -9.407791598392e-16 
   15       1.946248193899e-10       1.460985585707e-15       7.774440056866e-14       1.024350769984e-15       5.072528518672e-10       4.725220460760e-11      -2.145568189596e-14 
   16       1.953721914410e-10       1.624892408065e-15       8.059572532588e-14       1.159384023568e-15       4.561988988809e-10       4.292115201721e-11      -3.223277324982e-14 
   17       1.962731109174e-10       1.808538270454e-15       8.279208204799e-14       1.299177304362e-15       4.123869600197e-10       3.906242819755e-11      -3.467565918844e-14 
   18       1.972341374991e-10       2.009718754935e-15       8.408005825196e-14       1.443385900006e-15       3.743465300322e-10       3.570531289790e-11      -3.115995071685e-14 
   19       1.982723813514e-10       2.232261968584e-15       8.461984677989e-14       1.591793510265e-15       3.414802325459e-10       3.280490652044e-11      -2.416935271734e-14 
   20       1.993592270479e-10       2.481318895885e-15       8.473092092604e-14       1.744165343017e-15       3.125250749394e-10       3.019576545520e-11      -1.672640473066e-14 
   21       2.005058363219e-10       2.758597145796e-15       8.465375091875e-14       1.900402057398e-15       2.870287618105e-10       2.786946684494e-11      -1.046440081725e-14 
   22       2.016820930832e-10       3.063992927566e-15       8.458219731829e-14       2.060519210494e-15       2.643836269784e-10       2.582859228095e-11      -6.497495604209e-15 
   23       2.029062157812e-10       3.396346844143e-15       8.450457182419e-14       2.224419325385e-15       2.442797079307e-10       2.403563722882e-11      -4.886104709314e-15 
   24       2.041713317871e-10       3.753925344777e-15       8.429479678671e-14       2.391996240974e-15       2.262535831386e-10       2.241504151572e-11      -5.184350731402e-15 
   25       2.054743858303e-10       4.136778706513e-15       8.375434456327e-14       2.563058049403e-15       2.100944125259e-10       2.092924748382e-11      -6.815509762344e-15 
   26       2.067882515178e-10       4.545390556802e-15       8.262357499246e-14       2.737392351000e-15       1.955110798629e-10       1.954495573340e-11      -9.028827575170e-15 
   27       2.081234516175e-10       4.980138994420e-15       8.066317165911e-14       2.914742797121e-15       1.823298362092e-10       1.827919621747e-11      -1.112561715740e-14 
   28       2.094835332536e-10       5.441384075034e-15       7.763661620471e-14       3.094851148280e-15       1.703245989479e-10       1.715256097960e-11      -1.244939505513e-14 
   29       2.108816600650e-10       5.929948449126e-15       7.342682573727e-14       3.277498208935e-15       1.594343416815e-10       1.615312979740e-11      -1.292446024530e-14 
   30       2.123101029682e-10       6.446819138901e-15       6.795206999612e-14       3.462490609264e-15       1.495421490203e-10       1.524428915832e-11      -1.269718844851e-14 
   31       2.137422654048e-10       6.993029184460e-15       6.115296220713e-14       3.649640046918e-15       1.404463901277e-10       1.438229116826e-11      -1.196895919063e-14 
   32       2.151892061591e-10       7.569674620405e-15       5.306934964500e-14       3.838707715729e-15       1.321005247924e-10       1.356902274476e-11      -1.092491326126e-14 
   33       2.166595572734e-10       8.177908276014e-15       4.379591310824e-14       4.029439412323e-15       1.244461621131e-10       1.281768589976e-11      -9.786863405840e-15 
   34       2.181483251530e-10       8.818826029156e-15       3.343212512084e-14       4.221584970700e-15       1.173768737501e-10       1.213619549180e-11      -8.790615855513e-15 
   35       2.196570614156e-10       9.493077764029e-15       2.196806351882e-14       4.414916512946e-15       1.108566784568e-10       1.151829988061e-11      -8.027934274013e-15 
   36       2.211774673233e-10       1.020111081205e-14       9.359054103795e-15       4.609216944834e-15       1.048333439625e-10       1.094834648232e-11      -7.550991424821e-15 
   37       2.226942578151e-10       1.094331826708e-14      -4.442030556501e-15       4.804265283419e-15       9.922858889426e-11       1.040860654535e-11      -7.390682824677e-15 
   38       2.242193169030e-10       1.172022498897e-14      -1.947513803277e-14       4.999801620085e-15       9.402804874959e-11       9.898629957190e-12      -7.477084685573e-15 
   39       2.257667587981e-10       1.253235405570e-14      -3.578020005737e-14       5.195550203503e-15       8.921536417442e-11       9.421710397070e-12      -7.690328157415e-15 
   40       2.273426023062e-10       1.338017223659e-14      -5.340014283158e-14       5.391228150263e-15       8.474481583263e-11       8.979483685993e-12      -7.879223261667e-15 
   41       2.289463162949e-10       1.426412581402e-14      -7.238006452527e-14       5.586552601211e-15       8.055728036846e-11       8.571742460986e-12      -7.901293816057e-15 
   42       2.305782853845e-10       1.518477093770e-14      -9.276363397061e-14       5.781266246908e-15       7.664050422032e-11       8.196221784614e-12      -7.763545203011e-15 
   43       2.322332172659e-10       1.614267949864e-14      -1.145960880072e-13       5.975119233100e-15       7.298413868856e-11       7.848453772705e-12      -7.524028344456e-15 
   44       2.338971401245e-10       1.713840232897e-14      -1.379255437204e-13       6.167862205482e-15       6.956164996848e-11       7.521604596801e-12      -7.254489482725e-15 
   45       2.355544165373e-10       1.817240269123e-14      -1.627917749255e-13       6.359241946805e-15       6.633981131180e-11       7.208494047636e-12      -7.025602081710e-15 
   46       2.372130662921e-10       1.924483538634e-14      -1.891879408395e-13       6.548986720869e-15       6.331360050306e-11       6.908782190730e-12      -6.855460285570e-15 
   47       2.388857287441e-10       2.035569991004e-14      -2.170878485631e-13       6.736816555582e-15       6.047954311320e-11       6.623636738523e-12      -6.747085494536e-15 
   48       2.405822503632e-10       2.150489558550e-14      -2.464560416447e-13       6.922446990433e-15       5.782518677334e-11       6.353681250478e-12      -6.702605988743e-15 
   49       2.423093765628e-10       2.269221679238e-14      -2.772473934710e-13       7.105588830006e-15       5.532843329446e-11       6.098948283600e-12      -6.723181192539e-15 
   50       2.440707782751e-10       2.391740530460e-14      -3.094183804851e-13       7.285961043870e-15       5.296420263208e-11       5.859019620004e-12      -6.807120181924e-15 
   51       2.458678551360e-10       2.518033512035e-14      -3.429654526036e-13       7.463334166072e-15       5.072810673170e-11       5.633600513202e-12      -6.943810836100e-15 
   52       2.476986176239e-10       2.648086955529e-14      -3.778963751666e-13       7.637498249875e-15       4.861804720887e-11       5.422020332284e-12      -7.118011908940e-15 
   53       2.495570858877e-10       2.781880648474e-14      -4.142195990442e-13       7.808251114321e-15       4.662712994794e-11       5.223021965011e-12      -7.311357861647e-15 
   54       2.514329973294e-10       2.919387626033e-14      -4.519444036665e-13       7.975398716392e-15       4.474334224963e-11       5.034723771961e-12      -7.502198150262e-15 
   55       2.533159787891e-10       3.060576664336e-14      -4.910801694609e-13       8.138757334679e-15       4.295322140825e-11       4.855138016160e-12      -7.670906563078e-15 
   56       2.552099467326e-10       3.205420963168e-14      -5.316336558429e-13       8.298159903031e-15       4.125466729136e-11       4.683964127443e-12      -7.817721945105e-15 
   57       2.571217721867e-10       3.353891255315e-14      -5.736112975474e-13       8.453451902196e-15       3.964674717864e-11       4.521174283162e-12      -7.949057992020e-15 
   58       2.590570136644e-10       3.505953193023e-14      -6.170201227121e-13       8.604490119278e-15       3.812581950042e-11       4.366479954615e-12      -8.072472772470e-15 
   59       2.610197986927e-10       3.661567244911e-14      -6.618678619873e-13       8.751143090475e-15       3.668536649553e-11       4.219315542061e-12      -8.196721134409e-15 
   60       2.630127053402e-10       3.820688592885e-14      -7.081630576469e-13       8.893291543827e-15       3.531582686915e-11       4.078822009728e-12      -8.331807111435e-15 
   61       2.650373892973e-10       3.983266001637e-14      -7.559106479533e-13       9.030826345901e-15       3.400725312140e-11       3.944103485218e-12      -8.486023798652e-15 
   62       2.670968976171e-10       4.149238363788e-14      -8.050973152128e-13       9.163640801681e-15       3.275835911477e-11       3.815101384900e-12      -8.656177995644e-15 
   63       2.691936664507e-10       4.318537192810e-14      -8.557030275851e-13       9.291637404098e-15       3.156921562090e-11       3.691888348316e-12      -8.835254389983e-15 
   64       2.713287283842e-10       4.491087449033e-14      -9.077052398469e-13       9.414730533903e-15       3.043852867550e-11       3.574405036008e-12      -9.015192145007e-15 
   65       2.735016176217e-10       4.666807403954e-14      -9.610788589349e-13       9.532846823222e-15       2.936356186085e-11       3.462452425486e-12      -9.186841720846e-15 
   66       2.757102751695e-10       4.845608504561e-14      -1.015796209491e-12       9.645925519089e-15       2.834005858830e-11       3.355684107192e-12      -9.339921695446e-15 
   67       2.779509540187e-10       5.027395237650e-14      -1.071826999403e-12       9.753918846999e-15       2.736216438081e-11       3.253598580464e-12      -9.462975585588e-15 
   68       2.802199339792e-10       5.212065870578e-14      -1.129141017742e-12       9.856783641053e-15       2.642399129750e-11       3.155679217771e-12      -9.546108476613e-15 
   69       2.825192816114e-10       5.399515151113e-14      -1.187716940385e-12       9.954453452402e-15       2.552485302856e-11       3.061864310956e-12      -9.589937342156e-15 
   70       2.848520924380e-10       5.589631913411e-14      -1.247535254940e-12       1.004686141636e-14       2.466495582722e-11       2.972158866483e-12      -9.598385058883e-15 
   71       2.872207368965e-10       5.782298138751e-14      -1.308575721019e-12       1.013394862343e-14       2.384381514537e-11       2.886491507356e-12      -9.576088477085e-15 
   72       2.896268118047e-10       5.977388842267e-14      -1.370817405663e-12       1.021566425946e-14       2.306021991465e-11       2.804710545758e-12      -9.528426336553e-15 
   73       2.920710918276e-10       6.174771959677e-14      -1.434238718767e-12       1.029196574587e-14       2.231219682746e-11       2.726580055705e-12      -9.461547182452e-15 
   74       2.945534809427e-10       6.374308234022e-14      -1.498817448508e-12       1.036281887980e-14       2.159697461799e-11       2.651775945689e-12      -9.382397281196e-15 
   75       2.970729639069e-10       6.575851102394e-14      -1.564530796770e-12       1.042819797430e-14       2.091094834329e-11       2.579882031327e-12      -9.298748536325e-15 
   76       2.996284417346e-10       6.779251261563e-14      -1.631354369585e-12       1.048808583361e-14       2.025057465079e-11       2.510492960243e-12      -9.217542384796e-15 
   77       3.022215213118e-10       6.984371576417e-14      -1.699258857613e-12       1.054247336377e-14       1.961532501601e-11       2.443553336636e-12      -9.139511123681e-15 
   78       3.048541486686e-10       7.191074696992e-14      -1.768212811884e-12       1.059136014533e-14       1.900520864990e-11       2.379073589821e-12      -9.063621917032e-15 
   79       3.075277401810e-10       7.399218603723e-14      -1.838183648846e-12       1.063475472662e-14       1.841987292877e-11       2.317026899974e-12      -8.988667293150e-15 
   80       3.102431521642e-10       7.608656590120e-14      -1.909137664368e-12       1.067267476050e-14       1.785858676596e-11       2.257347461877e-12      -8.913258528278e-15 
   81       3.130006504659e-10       7.819237245443e-14      -1.981040047735e-12       1.070514714118e-14       1.732022398351e-11       2.199928748651e-12      -8.835819030282e-15 
   82       3.157998800599e-10       8.030804437383e-14      -2.053854895644e-12       1.073220814103e-14       1.680324668382e-11       2.144621775499e-12      -8.754577722348e-15 
   83       3.186398346398e-10       8.243197294738e-14      -2.127545226205e-12       1.075390354737e-14       1.630568862134e-11       2.091233363440e-12      -8.667562426669e-15 
   84       3.215194789121e-10       8.456250860183e-14      -2.202072209663e-12       1.077028385235e-14       1.582563331680e-11       2.039575531830e-12      -8.573165354320e-15 
   85       3.244398006144e-10       8.669798210859e-14      -2.277392683368e-12       1.078138860678e-14       1.536277589340e-11       1.989626887233e-12      -8.471961780113e-15 
   86       3.274020445110e-10       8.883668659207e-14      -2.353461248589e-12       1.078725971124e-14       1.491709087656e-11       1.941394930454e-12      -8.365182136647e-15 
   87       3.304070707892e-10       9.097687108162e-14      -2.430231017981e-12       1.078794618529e-14       1.448835228152e-11       1.894866442544e-12      -8.254169669425e-15 
   88       3.334553356221e-10       9.311674045093e-14      -2.507653616418e-12       1.078350422107e-14       1.407612529995e-11       1.850006607844e-12      -8.140383435777e-15 
   89       3.365468717319e-10       9.525445535741e-14      -2.585679181826e-12       1.077399723702e-14       1.367975798663e-11       1.806758137038e-12      -8.025401303777e-15 
   90       3.396812689534e-10       9.738813218159e-14      -2.664256366017e-12       1.075949593152e-14       1.329837294614e-11       1.765040390190e-12      -7.910922951165e-15 
   91       3.428576547968e-10       9.951584296654e-14      -2.743332335523e-12       1.074007833654e-14       1.293085901955e-11       1.724748499796e-12      -7.798772864262e-15 
   92       3.460746750115e-10       1.016356153572e-13      -2.822852772427e-12       1.071582987130e-14       1.257586297103e-11       1.685752493827e-12      -7.690903336894e-15 
   93       3.493310350230e-10       1.037454776776e-13      -2.902762987614e-12       1.068683941023e-14       1.223211063996e-11       1.647929063900e-12      -7.589000239512e-15 
   94       3.526272596145e-10       1.058436020483e-13      -2.983011450231e-12       1.065318669381e-14       1.189944370592e-11       1.611264240063e-12      -7.493225988126e-15 
   95       3.559641631963e-10       1.079281827822e-13      -3.063546793069e-12       1.061495311470e-14       1.157792420825e-11       1.575764608759e-12      -7.403292182811e-15 
   96       3.593423009329e-10       1.099973937157e-13      -3.144316763331e-12       1.057222553373e-14       1.126751523430e-11       1.541425620544e-12      -7.318837571206e-15 
   97       3.627619570049e-10       1.120493887682e-13      -3.225268238737e-12       1.052509627883e-14       1.096807712858e-11       1.508231161252e-12      -7.239425594718e-15 
   98       3.662231328717e-10       1.140823025006e-13      -3.306347243627e-12       1.047366314401e-14       1.067936370201e-11       1.476153123152e-12      -7.164541934733e-15 
   99       3.697255355334e-10       1.160942506749e-13      -3.387498965064e-12       1.041802938829e-14       1.040101844104e-11       1.445150976108e-12      -7.093592058832e-15 
  100       3.732685657932e-10       1.180833308124e-13      -3.468667768939e-12       1.035830373463e-14       1.013257071690e-11       1.415171338742e-12      -7.025898766999e-15 
  101       3.768513065197e-10       1.200476227536e-13      -3.549797216069e-12       1.029460036892e-14       9.873431994744e-12       1.386147549591e-12      -6.960699737831e-15 
  102       3.804725109089e-10       1.219851892163e-13      -3.630830078309e-12       1.022703893889e-14       9.622892042877e-12       1.357999238267e-12      -6.897145074750e-15 
  103       3.841305907471e-10       1.238940763554e-13      -3.711708354647e-12       1.015574455310e-14       9.380115141917e-12       1.330631896621e-12      -6.834294852215e-15 
  104       3.878240417540e-10       1.257723553484e-13      -3.792373199340e-12       1.008084323876e-14       9.144329570905e-12       1.303958728224e-12      -6.771309623197e-15 
  105       3.915528103329e-10       1.276182523488e-13      -3.872764660577e-12       1.000244761887e-14       8.915433382131e-12       1.277970481947e-12      -6.708056535532e-15 
  106       3.953170904261e-10       1.294300372111e-13      -3.952821936366e-12       9.920669289316e-15       8.693463771454e-12       1.252674296319e-12      -6.644580899652e-15 
  107       3.991168960688e-10       1.312059850298e-13      -4.032483474313e-12       9.835623136847e-15       8.478409462027e-12       1.228072081792e-12      -6.580920209551e-15 
