# dimensionless total [l(l+1)/2pi] C_l's
# for l=2 to 3000, i.e. number of multipoles equal to 2999
#
# -> if you prefer output in CAMB/HealPix/LensPix units/order, set 'format' to 'camb' in input file
# -> if you don't want to see such a header, set 'headers' to 'no' in input file
# -> for CMB lensing (phi), these are C_l^phi-phi for the lensing potential.
#    Remember the conversion factors:
#    C_l^dd (deflection) = l(l+1) C_l^phi-phi
#    C_l^gg (shear/convergence) = 1/4 (l(l+1))^2 C_l^phi-phi
#
# 1:l     2:TT                     3:EE                     4:TE                     5:BB                     6:phiphi                 7:TPhi                   8:Ephi               
    2       1.345589020027e-10       5.479064043517e-15       3.692470048432e-13       0.000000000000e+00       7.789173688337e-09       4.800288814065e-10      -2.013584093749e-12 
    3       1.268912695598e-10       8.566043440710e-15       4.587556834246e-13       0.000000000000e+00       4.907639410858e-09       3.422808165662e-10      -1.709236866721e-12 
    4       1.195916134682e-10       9.152985882259e-15       4.657407391677e-13       0.000000000000e+00       3.444086521219e-09       2.604319071149e-10      -1.295985080858e-12 
    5       1.140127311044e-10       7.681339001704e-15       4.272164584290e-13       0.000000000000e+00       2.585365005941e-09       2.067073550594e-10      -8.961851679687e-13 
    6       1.100574225048e-10       5.352112013763e-15       3.679715198231e-13       0.000000000000e+00       2.026937092027e-09       1.688424901816e-10      -5.520056542428e-13 
    7       1.073923743639e-10       3.235456543764e-15       3.045290257900e-13       0.000000000000e+00       1.639359133797e-09       1.408718547727e-10      -2.814524294950e-13 
    8       1.057820535144e-10       1.838456370163e-15       2.463494156405e-13       0.000000000000e+00       1.358288070469e-09       1.195759668201e-10      -8.825219040453e-14 
    9       1.049656669567e-10       1.148945754940e-15       1.985593135865e-13       0.000000000000e+00       1.147187407574e-09       1.029712099893e-10       3.311057664029e-14 
   10       1.047201161847e-10       8.980144230293e-16       1.633865716707e-13       0.000000000000e+00       9.835897201112e-10       8.971800531956e-11       9.422675422940e-14 
   11       1.049485125018e-10       8.124173452472e-16       1.408168838637e-13       0.000000000000e+00       8.293442436780e-10       7.915619758646e-11       1.097858717821e-13 
   12       1.055563285707e-10       7.401739339030e-16       1.292754084026e-13       0.000000000000e+00       7.261122098478e-10       6.999974127248e-11       9.542021173663e-14 
   13       1.063908531207e-10       6.503701660073e-16       1.264577653136e-13       0.000000000000e+00       6.411791292179e-10       6.256886595803e-11       6.550067533921e-14 
   14       1.074996223938e-10       5.711794185251e-16       1.297826422311e-13       0.000000000000e+00       5.703798649101e-10       5.624539222877e-11       3.078189489480e-14 
   15       1.087618622298e-10       5.311088625069e-16       1.367179613526e-13       0.000000000000e+00       5.106745606119e-10       5.078468306167e-11      -7.834279084850e-16 
   16       1.101642786339e-10       5.344418648732e-16       1.452420218080e-13       0.000000000000e+00       4.598212822732e-10       4.612946538877e-11      -2.440651894942e-14 
   17       1.116976379989e-10       5.670348539794e-16       1.540078387619e-13       0.000000000000e+00       4.161258249487e-10       4.211797553069e-11      -3.838291378547e-14 
   18       1.133285389089e-10       6.120517983624e-16       1.621905369314e-13       0.000000000000e+00       3.781420545154e-10       3.858669475840e-11      -4.327007288140e-14 
   19       1.150659154373e-10       6.666458274497e-16       1.696024921096e-13       0.000000000000e+00       3.452864864823e-10       3.547854407988e-11      -4.083477759263e-14 
   20       1.168790783943e-10       7.330090942997e-16       1.762814989749e-13       0.000000000000e+00       3.163095006828e-10       3.269208971906e-11      -3.397121989516e-14 
   21       1.187611449008e-10       8.186752413741e-16       1.825207803681e-13       0.000000000000e+00       2.907670162395e-10       3.021130156676e-11      -2.507363300348e-14 
   22       1.206859007737e-10       9.324905300665e-16       1.887369621080e-13       0.000000000000e+00       2.680584091038e-10       2.800588207571e-11      -1.662433148573e-14 
   23       1.226642432461e-10       1.075856707131e-15       1.952124190830e-13       0.000000000000e+00       2.478788053606e-10       2.603647617824e-11      -9.945212375108e-15 
   24       1.246974363404e-10       1.246899045289e-15       2.021428999760e-13       0.000000000000e+00       2.297689993325e-10       2.424034216520e-11      -5.888289799882e-15 
   25       1.267786191002e-10       1.443570803825e-15       2.094367390407e-13       0.000000000000e+00       2.135208083920e-10       2.261376702679e-11      -4.435769363128e-15 
   26       1.288866874412e-10       1.663493077279e-15       2.168601007679e-13       0.000000000000e+00       1.988448465325e-10       2.115396465436e-11      -5.112631469783e-15 
   27       1.310299300656e-10       1.906493621778e-15       2.241710538895e-13       0.000000000000e+00       1.855687490057e-10       1.984104233665e-11      -7.202589539322e-15 
   28       1.332156055778e-10       2.172895699226e-15       2.310834034383e-13       0.000000000000e+00       1.734673889086e-10       1.864115153477e-11      -9.827551072006e-15 
   29       1.354479740163e-10       2.462883644116e-15       2.373187587371e-13       0.000000000000e+00       1.624811508074e-10       1.754611111524e-11      -1.242972188204e-14 
   30       1.377174554038e-10       2.776408025875e-15       2.425524502170e-13       0.000000000000e+00       1.524942234935e-10       1.654496375652e-11      -1.445182151037e-14 
   31       1.400051220109e-10       3.113492584035e-15       2.464590217196e-13       0.000000000000e+00       1.433055672400e-10       1.561848563180e-11      -1.536087191727e-14 
   32       1.423169212030e-10       3.475477183107e-15       2.489574611526e-13       0.000000000000e+00       1.348692119746e-10       1.476326297070e-11      -1.521030334609e-14 
   33       1.446599138046e-10       3.864258079640e-15       2.500593493100e-13       0.000000000000e+00       1.271268736888e-10       1.397495454340e-11      -1.429638066880e-14 
   34       1.470343111153e-10       4.281823639910e-15       2.498038148002e-13       0.000000000000e+00       1.199718302741e-10       1.324427780299e-11      -1.297010118781e-14 
   35       1.494405417405e-10       4.729690999885e-15       2.482425826769e-13       0.000000000000e+00       1.133683291654e-10       1.256753532856e-11      -1.145830051681e-14 
   36       1.518729841311e-10       5.209283769843e-15       2.454534962925e-13       0.000000000000e+00       1.072641954891e-10       1.193877428973e-11      -9.987880555996e-15 
   37       1.543223411237e-10       5.721942368128e-15       2.415150680928e-13       0.000000000000e+00       1.015809534592e-10       1.134945948046e-11      -8.786347199815e-15 
   38       1.567933628011e-10       6.268441095259e-15       2.363983492035e-13       0.000000000000e+00       9.630451556103e-11       1.079860880654e-11      -7.910435945623e-15 
   39       1.592918944390e-10       6.849302867845e-15       2.300399628081e-13       0.000000000000e+00       9.141872494527e-11       1.028542475079e-11      -7.361864401548e-15 
   40       1.618195099718e-10       7.464916701277e-15       2.223703380013e-13       0.000000000000e+00       8.687775824345e-11       9.806254362590e-12      -7.132081927537e-15 
   41       1.643745570190e-10       8.115617262208e-15       2.133166228474e-13       0.000000000000e+00       8.262221649913e-11       9.356085832069e-12      -7.191057034667e-15 
   42       1.669568713019e-10       8.801976851935e-15       2.028139128554e-13       0.000000000000e+00       7.863992899218e-11       8.934237461081e-12      -7.451403343520e-15 
   43       1.695637775934e-10       9.524592943812e-15       1.907967333695e-13       0.000000000000e+00       7.492058023597e-11       8.540091219671e-12      -7.791067477399e-15 
   44       1.721883158385e-10       1.028400454173e-14       1.771955645434e-13       0.000000000000e+00       7.143745149887e-11       8.171368630620e-12      -8.061061912637e-15 
   45       1.748228196393e-10       1.108070499598e-14       1.619452279188e-13       0.000000000000e+00       6.815703433081e-11       7.824996981689e-12      -8.123418963284e-15 
   46       1.774718265880e-10       1.191519237663e-14       1.450137898624e-13       0.000000000000e+00       6.507437954102e-11       7.500334326793e-12      -7.982349473295e-15 
   47       1.801423785817e-10       1.278792884927e-14       1.263817549599e-13       0.000000000000e+00       6.218609206996e-11       7.196679406697e-12      -7.689576977474e-15 
   48       1.828402473616e-10       1.369932389785e-14       1.060342865215e-13       0.000000000000e+00       5.947966650035e-11       6.912279274923e-12      -7.308851881781e-15 
   49       1.855697810254e-10       1.464973212057e-14       8.396138809990e-14       0.000000000000e+00       5.693280851456e-11       6.644252187923e-12      -6.916631211022e-15 
   50       1.883335931886e-10       1.563942521501e-14       6.015868495374e-14       0.000000000000e+00       5.452018844790e-11       6.389426778432e-12      -6.587072833605e-15 
   51       1.911318870962e-10       1.666850408191e-14       3.462959738599e-14       0.000000000000e+00       5.223743730507e-11       6.147307005786e-12      -6.340639273056e-15 
   52       1.939626827346e-10       1.773695905311e-14       7.384071098484e-15       0.000000000000e+00       5.008249128846e-11       5.917778718798e-12      -6.182717967683e-15 
   53       1.968218010701e-10       1.884469027965e-14      -2.156176641926e-14       0.000000000000e+00       4.804840798550e-11       5.700230528668e-12      -6.118030464225e-15 
   54       1.997027031560e-10       1.999150431301e-14      -5.218539613943e-14       0.000000000000e+00       4.612303757162e-11       5.493519818364e-12      -6.150574023290e-15 
   55       2.025989076437e-10       2.117717965853e-14      -8.446730949398e-14       0.000000000000e+00       4.429275073566e-11       5.296346374403e-12      -6.280405122187e-15 
   56       2.055123151854e-10       2.240169033736e-14      -1.184224300152e-13       0.000000000000e+00       4.255546018752e-11       5.108559844459e-12      -6.493188031792e-15 
   57       2.084466701751e-10       2.366503187400e-14      -1.540761301106e-13       0.000000000000e+00       4.091025805873e-11       4.930117543065e-12      -6.767947599142e-15 
   58       2.114051044050e-10       2.496715647457e-14      -1.914554643592e-13       0.000000000000e+00       3.935347556891e-11       4.760687571197e-12      -7.079822384470e-15 
   59       2.143900766298e-10       2.630797229544e-14      -2.305893342452e-13       0.000000000000e+00       3.787851228280e-11       4.599630707051e-12      -7.399883223685e-15 
   60       2.174033121310e-10       2.768734271170e-14      -2.715086528905e-13       0.000000000000e+00       3.647566536743e-11       4.445982296824e-12      -7.694951790845e-15 
   61       2.204460555715e-10       2.910505448627e-14      -3.142401525519e-13       0.000000000000e+00       3.513483592547e-11       4.298733564436e-12      -7.935552284360e-15 
   62       2.235200326062e-10       3.056071558286e-14      -3.587858101744e-13       0.000000000000e+00       3.385474412413e-11       4.157790295254e-12      -8.122262638969e-15 
   63       2.266265978533e-10       3.205383301364e-14      -4.051390749871e-13       0.000000000000e+00       3.263548892795e-11       4.023198183397e-12      -8.264983080221e-15 
   64       2.297663911544e-10       3.358384023055e-14      -4.532907819799e-13       0.000000000000e+00       3.147577566355e-11       3.894853962919e-12      -8.375400037793e-15 
   65       2.329392870793e-10       3.515009540708e-14      -5.032291149262e-13       0.000000000000e+00       3.037283656410e-11       3.772496798924e-12      -8.467062765838e-15 
   66       2.361443444311e-10       3.675187972001e-14      -5.549395694055e-13       0.000000000000e+00       2.932235131397e-11       3.655699678683e-12      -8.555459963319e-15 
   67       2.393797557497e-10       3.838839563125e-14      -6.084049158268e-13       0.000000000000e+00       2.831836759327e-11       3.543860802746e-12      -8.658096394356e-15 
   68       2.426436947351e-10       4.005877378780e-14      -6.636049667553e-13       0.000000000000e+00       2.735489713336e-11       3.436372968714e-12      -8.789963650875e-15 
   69       2.459371707774e-10       4.176209918610e-14      -7.205159068033e-13       0.000000000000e+00       2.643125703212e-11       3.333190820945e-12      -8.948715468639e-15 
   70       2.492616647751e-10       4.349738724698e-14      -7.791107599067e-13       0.000000000000e+00       2.554767296535e-11       3.234363603303e-12      -9.126612382446e-15 
   71       2.526182553569e-10       4.526357419552e-14      -8.393595317765e-13       0.000000000000e+00       2.470366348920e-11       3.139863352407e-12      -9.314821364333e-15 
   72       2.560075913512e-10       4.705951556329e-14      -9.012291679173e-13       0.000000000000e+00       2.389800343667e-11       3.049580840987e-12      -9.503374647046e-15 
   73       2.594298642553e-10       4.888398469050e-14      -9.646835116447e-13       0.000000000000e+00       2.312868731412e-11       2.963321521244e-12      -9.681128547508e-15 
   74       2.628847807046e-10       5.073567122826e-14      -1.029683262103e-12       0.000000000000e+00       2.239289269781e-11       2.880801468202e-12      -9.835722290295e-15 
   75       2.663715349418e-10       5.261317964072e-14      -1.096185932284e-12       0.000000000000e+00       2.168694363036e-11       2.801643323070e-12      -9.953536831101e-15 
   76       2.698892717764e-10       5.451507544390e-14      -1.164148862075e-12       0.000000000000e+00       2.100722623650e-11       2.725469932392e-12      -1.002290121090e-14 
   77       2.734386337849e-10       5.644003696738e-14      -1.233538984541e-12       0.000000000000e+00       2.035320924426e-11       2.652213946340e-12      -1.004447766212e-14 
   78       2.770204475431e-10       5.838672867448e-14      -1.304324772576e-12       0.000000000000e+00       1.972491032828e-11       2.581857569360e-12      -1.002270426574e-14 
   79       2.806352409755e-10       6.035375537020e-14      -1.376473362187e-12       0.000000000000e+00       1.912197595367e-11       2.514337852781e-12      -9.962740430286e-15 
   80       2.842832258821e-10       6.233966168234e-14      -1.449950573162e-12       0.000000000000e+00       1.854366429851e-11       2.449544641507e-12      -9.870492308549e-15 
   81       2.879642804658e-10       6.434293154252e-14      -1.524720929735e-12       0.000000000000e+00       1.798882817643e-11       2.387318520704e-12      -9.752638214328e-15 
   82       2.916779318598e-10       6.636198766732e-14      -1.600747681245e-12       0.000000000000e+00       1.745589795912e-11       2.327448762487e-12      -9.616654039131e-15 
   83       2.954233386542e-10       6.839519103933e-14      -1.677992822804e-12       0.000000000000e+00       1.694286449890e-11       2.269671272609e-12      -9.470838668897e-15 
   84       2.991996766390e-10       7.044086704351e-14      -1.756415288387e-12       0.000000000000e+00       1.644776914097e-11       2.213733093257e-12      -9.322826095381e-15 
   85       3.030074077814e-10       7.249738999153e-14      -1.835965140669e-12       0.000000000000e+00       1.597030450381e-11       2.159602695405e-12      -9.174782668255e-15 
   86       3.068471905603e-10       7.456311172350e-14      -1.916588451393e-12       0.000000000000e+00       1.551044899747e-11       2.107290945927e-12      -9.027456547532e-15 
   87       3.107194849168e-10       7.663633612864e-14      -1.998229033400e-12       0.000000000000e+00       1.506797489984e-11       2.056786730172e-12      -8.881620201442e-15 
   88       3.146245415579e-10       7.871531907435e-14      -2.080828430577e-12       0.000000000000e+00       1.464243980174e-11       2.008056017250e-12      -8.738070389441e-15 
   89       3.185623912605e-10       8.079826833525e-14      -2.164325907805e-12       0.000000000000e+00       1.423317805196e-11       1.961040925304e-12      -8.597628145227e-15 
   90       3.225328341751e-10       8.288334352225e-14      -2.248658440908e-12       0.000000000000e+00       1.383929220229e-11       1.915658786795e-12      -8.461138759757e-15 
   91       3.265354291300e-10       8.496865601165e-14      -2.333760706598e-12       0.000000000000e+00       1.345964445261e-11       1.871801213773e-12      -8.329471764259e-15 
   92       3.305694829346e-10       8.705226887413e-14      -2.419565072430e-12       0.000000000000e+00       1.309284809593e-11       1.829333163164e-12      -8.203520913249e-15 
   93       3.346342938519e-10       8.913222961519e-14      -2.506003431236e-12       0.000000000000e+00       1.273759748769e-11       1.788126398197e-12      -8.084015608988e-15 
   94       3.387299471337e-10       9.120667418294e-14      -2.593013041891e-12       0.000000000000e+00       1.239373330427e-11       1.748167659774e-12      -7.970922768660e-15 
   95       3.428566199146e-10       9.327373854472e-14      -2.680531552505e-12       0.000000000000e+00       1.206132242768e-11       1.709465111577e-12      -7.863954547988e-15 
   96       3.470143305938e-10       9.533152764394e-14      -2.768495249261e-12       0.000000000000e+00       1.174032984110e-11       1.672014937141e-12      -7.762746313856e-15 
   97       3.512029316285e-10       9.737811577956e-14      -2.856839071686e-12       0.000000000000e+00       1.143061472075e-11       1.635800877277e-12      -7.666854039016e-15 
   98       3.554221023263e-10       9.941154698556e-14      -2.945496627917e-12       0.000000000000e+00       1.113192652788e-11       1.600793767511e-12      -7.575751696789e-15 
   99       3.596713416380e-10       1.014298354104e-13      -3.034400209966e-12       0.000000000000e+00       1.084390110061e-11       1.566951075503e-12      -7.488828655764e-15 
  100       3.639499609507e-10       1.034309656964e-13      -3.123480808992e-12       0.000000000000e+00       1.056605674593e-11       1.534216438480e-12      -7.405387074505e-15 
  101       3.682570768803e-10       1.054128933593e-13      -3.212668130563e-12       0.000000000000e+00       1.029779033158e-11       1.502519200668e-12      -7.324639296249e-15 
  102       3.725916040643e-10       1.073735451678e-13      -3.301890609928e-12       0.000000000000e+00       1.003837337794e-11       1.471773950715e-12      -7.245705243613e-15 
  103       3.769522479548e-10       1.093108195226e-13      -3.391075427280e-12       0.000000000000e+00       9.786948150037e-12       1.441880059124e-12      -7.167609813291e-15 
  104       3.813377730799e-10       1.112226431395e-13      -3.480149354388e-12       0.000000000000e+00       9.542722580778e-12       1.412745177071e-12      -7.089497450244e-15 
  105       3.857478646221e-10       1.131071489990e-13      -3.569041391843e-12       0.000000000000e+00       9.305593446586e-12       1.384360344367e-12      -7.011314493082e-15 
  106       3.901823703322e-10       1.149625232543e-13      -3.657680518188e-12       0.000000000000e+00       9.075600479849e-12       1.356734212354e-12      -6.933214575681e-15 
  107       3.946410313239e-10       1.167869520608e-13      -3.745994914474e-12       0.000000000000e+00       8.852733352521e-12       1.329869791686e-12      -6.855349462709e-15 
