# dimensionless total lensed [l(l+1)/2pi] C_l's
# for l=2 to 2500, i.e. number of multipoles equal to 2499
#
# -> if you prefer output in CAMB/HealPix/LensPix units/order, set 'format' to 'camb' in input file
# -> if you don't want to see such a header, set 'headers' to 'no' in input file
# -> for CMB lensing (phi), these are C_l^phi-phi for the lensing potential.
#    Remember the conversion factors:
#    C_l^dd (deflection) = l(l+1) C_l^phi-phi
#    C_l^gg (shear/convergence) = 1/4 (l(l+1))^2 C_l^phi-phi
#
# 1:l     2:TT                     3:EE                     4:TE                     5:BB                     6:phiphi                 7:TPhi                   8:Ephi               
    2       1.345593985115e-10       5.479321549681e-15       3.692470004184e-13       2.575061211826e-19       7.789173688337e-09       4.800288814065e-10      -2.013584093749e-12 
    3       1.268922604174e-10       8.566558607528e-15       4.587556637226e-13       5.151663896562e-19       4.907639410858e-09       3.422808165662e-10      -1.709236866721e-12 
    4       1.195932601522e-10       9.153844833030e-15       4.657406826208e-13       8.589486667417e-19       3.444086521219e-09       2.604319071149e-10      -1.295985080858e-12 
    5       1.140151923634e-10       7.682628054937e-15       4.272163297907e-13       1.289046033310e-18       2.585365005941e-09       2.067073550594e-10      -8.961851679687e-13 
    6       1.100608538011e-10       5.353917722896e-15       3.679712673019e-13       1.805689516685e-18       2.026937092027e-09       1.688424901816e-10      -5.520056542428e-13 
    7       1.073969273942e-10       3.237865731141e-15       3.045285785135e-13       2.409141784246e-18       1.639359133797e-09       1.408718547727e-10      -2.814524294950e-13 
    8       1.057878758172e-10       1.841556154422e-15       2.463486814925e-13       3.099690121867e-18       1.358288070469e-09       1.195759668201e-10      -8.825219040453e-14 
    9       1.049729016124e-10       1.152823571125e-15       1.985581774392e-13       3.877638958324e-18       1.147187407574e-09       1.029712099893e-10       3.311057664029e-14 
   10       1.047289016126e-10       9.027580349239e-16       1.633848940231e-13       4.743302211894e-18       9.835897201112e-10       8.971800531956e-11       9.422675422940e-14 
   11       1.049589823543e-10       8.181148495908e-16       1.408144998818e-13       5.696995739433e-18       8.293442436780e-10       7.915619758646e-11       1.097858717821e-13 
   12       1.055686117204e-10       7.469137563719e-16       1.292721273440e-13       6.739030161256e-18       7.261122098478e-10       6.999974127248e-11       9.542021173663e-14 
   13       1.064050737365e-10       6.582410490314e-16       1.264533703065e-13       7.869704317314e-18       6.411791292179e-10       6.256886595803e-11       6.550067533921e-14 
   14       1.075159000954e-10       5.802704012174e-16       1.297768903695e-13       9.089299582323e-18       5.703798649101e-10       5.624539222877e-11       3.078189489480e-14 
   15       1.087803123116e-10       5.415092531731e-16       1.367105840600e-13       1.039807523072e-17       5.106745606119e-10       5.078468306167e-11      -7.834279084850e-16 
   16       1.101850123433e-10       5.462412067537e-16       1.452327254187e-13       1.179626499815e-17       4.598212822732e-10       4.612946538877e-11      -2.440651894942e-14 
   17       1.117207628565e-10       5.803228850354e-16       1.539963052663e-13       1.328407493625e-17       4.161258249487e-10       4.211797553069e-11      -3.838291378547e-14 
   18       1.133541590613e-10       6.269184057438e-16       1.621764248590e-13       1.486168198317e-17       3.781420545154e-10       3.858669475840e-11      -4.327007288140e-14 
   19       1.150941319879e-10       6.831809995955e-16       1.695854373476e-13       1.652923758597e-17       3.452864864823e-10       3.547854407988e-11      -4.083477759263e-14 
   20       1.169099898020e-10       7.513028666486e-16       1.762611158901e-13       1.828686267380e-17       3.163095006828e-10       3.269208971906e-11      -3.397121989516e-14 
   21       1.187948472616e-10       8.388176457192e-16       1.824966625551e-13       2.013465975145e-17       2.907670162395e-10       3.021130156676e-11      -2.507363300348e-14 
   22       1.207224881792e-10       9.545715370239e-16       1.887086834810e-13       2.207270704070e-17       2.680584091038e-10       2.800588207571e-11      -1.662433148573e-14 
   23       1.227038079842e-10       1.099966176673e-15       1.951795345668e-13       2.410107334520e-17       2.478788053606e-10       2.603647617824e-11      -9.945212375108e-15 
   24       1.247400691747e-10       1.273126670150e-15       2.021049465478e-13       2.621981214255e-17       2.297689993325e-10       2.424034216520e-11      -5.888289799882e-15 
   25       1.268244093448e-10       1.472006066306e-15       2.093932363988e-13       2.842897942639e-17       2.135208083920e-10       2.261376702679e-11      -4.435769363128e-15 
   26       1.289357231320e-10       1.694225196977e-15       2.168105523585e-13       3.072862652453e-17       1.988448465325e-10       2.115396465436e-11      -5.112631469783e-15 
   27       1.310822979417e-10       1.939611517223e-15       2.241149477270e-13       3.311881594774e-17       1.855687490057e-10       1.984104233665e-11      -7.202589539322e-15 
   28       1.332713911236e-10       2.208487943520e-15       2.310202132689e-13       3.559961668792e-17       1.734673889086e-10       1.864115153477e-11      -9.827551072006e-15 
   29       1.355072612298e-10       2.501038445668e-15       2.372479453176e-13       3.817112371486e-17       1.624811508074e-10       1.754611111524e-11      -1.242972188204e-14 
   30       1.377803267545e-10       2.817213188614e-15       2.424734627468e-13       4.083344577211e-17       1.524942234935e-10       1.654496375652e-11      -1.445182151037e-14 
   31       1.400716583876e-10       3.157035468027e-15       2.463712996374e-13       4.358670522958e-17       1.433055672400e-10       1.561848563180e-11      -1.536087191727e-14 
   32       1.423872015603e-10       3.521844697903e-15       2.488604368945e-13       4.643105356993e-17       1.348692119746e-10       1.476326297070e-11      -1.521030334609e-14 
   33       1.447340149678e-10       3.913536656635e-15       2.499524506587e-13       4.936666511933e-17       1.271268736888e-10       1.397495454340e-11      -1.429638066880e-14 
   34       1.471123076166e-10       4.334099200795e-15       2.496864676616e-13       5.239373359688e-17       1.199718302741e-10       1.324427780299e-11      -1.297010118781e-14 
   35       1.495225055579e-10       4.785048941156e-15       2.481142157833e-13       5.551246662247e-17       1.133683291654e-10       1.256753532856e-11      -1.145830051681e-14 
   36       1.519589844547e-10       5.267808937324e-15       2.453135449235e-13       5.872309263656e-17       1.072641954891e-10       1.193877428973e-11      -9.987880555996e-15 
   37       1.544124441817e-10       5.783719022522e-15       2.413629783629e-13       6.202585342787e-17       1.015809534592e-10       1.134945948046e-11      -8.786347199815e-15 
   38       1.568876318792e-10       6.333552860176e-15       2.362335854463e-13       6.542096693301e-17       9.630451556103e-11       1.079860880654e-11      -7.910435945623e-15 
   39       1.593903897388e-10       6.917832689723e-15       2.298620132614e-13       6.890865437497e-17       9.141872494527e-11       1.028542475079e-11      -7.361864401548e-15 
   40       1.619222883961e-10       7.536946813916e-15       2.221787199795e-13       7.248915149136e-17       8.687775824345e-11       9.806254362590e-12      -7.132081927537e-15 
   41       1.644816720870e-10       8.191229132357e-15       2.131108889817e-13       7.616269047675e-17       8.262221649913e-11       9.356085832069e-12      -7.191057034667e-15 
   42       1.670683735475e-10       8.881251060783e-15       2.025936603615e-13       7.992943637169e-17       7.863992899218e-11       8.934237461081e-12      -7.451403343520e-15 
   43       1.696797146102e-10       9.607609111586e-15       1.905616116910e-13       8.378953162422e-17       7.492058023597e-11       8.540091219671e-12      -7.791067477399e-15 
   44       1.723087321832e-10       1.037084126804e-14       1.769452825605e-13       8.774311302713e-17       7.143745149887e-11       8.171368630620e-12      -8.061061912637e-15 
   45       1.749477568984e-10       1.117143976825e-14       1.616795611576e-13       9.179029408377e-17       6.815703433081e-11       7.824996981689e-12      -8.123418963284e-15 
   46       1.776013240073e-10       1.200990137476e-14       1.447325869859e-13       9.593110660736e-17       6.507437954102e-11       7.500334326793e-12      -7.982349473295e-15 
   47       1.802764732892e-10       1.288668682070e-14       1.260849452837e-13       1.001655410928e-16       6.218609206996e-11       7.196679406697e-12      -7.689576977474e-15 
   48       1.829789744397e-10       1.380220405732e-14       1.057218880971e-13       1.044935612037e-16       5.947966650035e-11       6.912279274923e-12      -7.308851881781e-15 
   49       1.857131735848e-10       1.475680604682e-14       8.363351608654e-14       1.089151024419e-16       5.693280851456e-11       6.644252187923e-12      -6.916631211022e-15 
   50       1.884816825043e-10       1.575076272645e-14       5.981555815574e-14       1.134300700070e-16       5.452018844790e-11       6.389426778432e-12      -6.587072833605e-15 
   51       1.912847029377e-10       1.678417305004e-14       3.427153802793e-14       1.180383347817e-16       5.223743730507e-11       6.147307005786e-12      -6.340639273056e-15 
   52       1.941202535598e-10       1.785702525588e-14       7.011510025954e-15       1.227397339561e-16       5.008249128846e-11       5.917778718798e-12      -6.182717967683e-15 
   53       1.969841541716e-10       1.896921726723e-14      -2.194828239154e-14       1.275340704044e-16       4.804840798550e-11       5.700230528668e-12      -6.118030464225e-15 
   54       1.998698648126e-10       2.012055326963e-14      -5.258519669079e-14       1.324211113162e-16       4.612303757162e-11       5.493519818364e-12      -6.150574023290e-15 
   55       2.027709030989e-10       2.131080930197e-14      -8.487959686800e-14       1.374006156261e-16       4.429275073566e-11       5.296346374403e-12      -6.280405122187e-15 
   56       2.056891680403e-10       2.253995695144e-14      -1.188462873926e-13       1.424724274218e-16       4.255546018752e-11       5.108559844459e-12      -6.493188031792e-15 
   57       2.086284022306e-10       2.380798923419e-14      -1.545105204051e-13       1.476364033425e-16       4.091025805873e-11       4.930117543065e-12      -6.767947599142e-15 
   58       2.115917356709e-10       2.511485573248e-14      -1.918992254456e-13       1.528923855713e-16       3.935347556891e-11       4.760687571197e-12      -7.079822384470e-15 
   59       2.145816253320e-10       2.646046186091e-14      -2.310411741460e-13       1.582402015878e-16       3.787851228280e-11       4.599630707051e-12      -7.399883223685e-15 
   60       2.175997947175e-10       2.784466813263e-14      -2.719671449226e-13       1.636796639211e-16       3.647566536743e-11       4.445982296824e-12      -7.694951790845e-15 
   61       2.206474864297e-10       2.926725845973e-14      -3.147037334764e-13       1.692106123114e-16       3.513483592547e-11       4.298733564436e-12      -7.935552284360e-15 
   62       2.237264228415e-10       3.072783840015e-14      -3.592527882375e-13       1.748330518098e-16       3.385474412413e-11       4.157790295254e-12      -8.122262638969e-15 
   63       2.268379547921e-10       3.222591266512e-14      -4.056076302283e-13       1.805470453794e-16       3.263548892795e-11       4.023198183397e-12      -8.264983080221e-15 
   64       2.299827181067e-10       3.376091238711e-14      -4.537589637454e-13       1.863526752989e-16       3.147577566355e-11       3.894853962919e-12      -8.375400037793e-15 
   65       2.331605830906e-10       3.533219340352e-14      -5.036948394384e-13       1.922500442608e-16       3.037283656410e-11       3.772496798924e-12      -8.467062765838e-15 
   66       2.363706040237e-10       3.693903454032e-14      -5.554006173887e-13       1.982392764707e-16       2.932235131397e-11       3.655699678683e-12      -8.555459963319e-15 
   67       2.396109686544e-10       3.858063589575e-14      -6.088589301875e-13       2.043205187453e-16       2.831836759327e-11       3.543860802746e-12      -8.658096394356e-15 
   68       2.428798457099e-10       4.025612587451e-14      -6.640494490874e-13       2.104939403243e-16       2.735489713336e-11       3.436372968714e-12      -8.789963650875e-15 
   69       2.461782397353e-10       4.196458778211e-14      -7.209482099609e-13       2.167597298074e-16       2.643125703212e-11       3.333190820945e-12      -8.948715468639e-15 
   70       2.495076266470e-10       4.370503556068e-14      -7.795280838086e-13       2.231180995670e-16       2.554767296535e-11       3.234363603303e-12      -9.126612382446e-15 
   71       2.528690798550e-10       4.547640404948e-14      -8.397589203967e-13       2.295692880269e-16       2.470366348920e-11       3.139863352407e-12      -9.314821364333e-15 
   72       2.562632427237e-10       4.727754749230e-14      -9.016075062986e-13       2.361135607279e-16       2.389800343667e-11       3.049580840987e-12      -9.503374647046e-15 
   73       2.596903010335e-10       4.910723804497e-14      -9.650375229375e-13       2.427512113929e-16       2.312868731412e-11       2.963321521244e-12      -9.681128547508e-15 
   74       2.631499554427e-10       5.096416428281e-14      -1.030009504628e-12       2.494825629932e-16       2.239289269781e-11       2.880801468202e-12      -9.835722290295e-15 
   75       2.666413939483e-10       5.284692970809e-14      -1.096480796619e-12       2.563079688140e-16       2.168694363036e-11       2.801643323070e-12      -9.953536831101e-15 
   76       2.701637553240e-10       5.475409896456e-14      -1.164408567230e-12       2.632277669038e-16       2.100722623650e-11       2.725469932392e-12      -1.002290121090e-14 
   77       2.737176778744e-10       5.668434950977e-14      -1.233759571144e-12       2.702421314789e-16       2.035320924426e-11       2.652213946340e-12      -1.004447766212e-14 
   78       2.773039843836e-10       5.863634501781e-14      -1.304502098543e-12       2.773511962323e-16       1.972491032828e-11       2.581857569360e-12      -1.002270426574e-14 
   79       2.809231990055e-10       6.060868961993e-14      -1.376603099289e-12       2.845550986535e-16       1.912197595367e-11       2.514337852781e-12      -9.962740430286e-15 
   80       2.845755297936e-10       6.259992739031e-14      -1.450028203596e-12       2.918539801380e-16       1.854366429851e-11       2.449544641507e-12      -9.870492308549e-15 
   81       2.882608512299e-10       6.460854183177e-14      -1.524741742694e-12       2.992479860976e-16       1.798882817643e-11       2.387318520704e-12      -9.752638214328e-15 
   82       2.919786867543e-10       6.663295536150e-14      -1.600706769503e-12       3.067372660695e-16       1.745589795912e-11       2.327448762487e-12      -9.616654039131e-15 
   83       2.957281912937e-10       6.867152879683e-14      -1.677885079299e-12       3.143219738266e-16       1.694286449890e-11       2.269671272609e-12      -9.470838668897e-15 
   84       2.995085369901e-10       7.072258744387e-14      -1.756235410509e-12       3.220022733225e-16       1.644776914097e-11       2.213733093257e-12      -9.322826095381e-15 
   85       3.033201821244e-10       7.278450545913e-14      -1.835707659124e-12       3.297783574197e-16       1.597030450381e-11       2.159602695405e-12      -9.174782668255e-15 
   86       3.071637814996e-10       7.485563459545e-14      -1.916247738595e-12       3.376504324818e-16       1.551044899747e-11       2.107290945927e-12      -9.027456547532e-15 
   87       3.110397914092e-10       7.693427877633e-14      -1.997799304656e-12       3.456187130186e-16       1.506797489984e-11       2.056786730172e-12      -8.881620201442e-15 
   88       3.149484589428e-10       7.901869402880e-14      -2.080303745407e-12       3.536834218943e-16       1.464243980174e-11       2.008056017250e-12      -8.738070389441e-15 
   89       3.188898112919e-10       8.110708841625e-14      -2.163700171400e-12       3.618447905351e-16       1.423317805196e-11       1.961040925304e-12      -8.597628145227e-15 
   90       3.228636450558e-10       8.319762197129e-14      -2.247925405714e-12       3.701030591370e-16       1.383929220229e-11       1.915658786795e-12      -8.461138759757e-15 
   91       3.268695155471e-10       8.528840662858e-14      -2.332913974046e-12       3.784584768736e-16       1.345964445261e-11       1.871801213773e-12      -8.329471764259e-15 
   92       3.309067260976e-10       8.737750615768e-14      -2.418598094789e-12       3.869113021040e-16       1.309284809593e-11       1.829333163164e-12      -8.203520913249e-15 
   93       3.349745710553e-10       8.946296921002e-14      -2.504909520666e-12       3.954618571934e-16       1.273759748769e-11       1.788126398197e-12      -8.084015608988e-15 
   94       3.390731298099e-10       9.154293429119e-14      -2.591785402018e-12       4.041107019541e-16       1.239373330427e-11       1.748167659774e-12      -7.970922768660e-15 
   95       3.432025729719e-10       9.361554052577e-14      -2.679163291120e-12       4.128584867959e-16       1.206132242768e-11       1.709465111577e-12      -7.863954547988e-15 
   96       3.473629122068e-10       9.567889633215e-14      -2.766979384496e-12       4.217059013819e-16       1.174032984110e-11       1.672014937141e-12      -7.762746313856e-15 
   97       3.515539930230e-10       9.773107980993e-14      -2.855168538421e-12       4.306536755862e-16       1.143061472075e-11       1.635800877277e-12      -7.666854039016e-15 
   98       3.557754875599e-10       9.977013912733e-14      -2.943664284413e-12       4.397025804512e-16       1.113192652788e-11       1.600793767511e-12      -7.575751696789e-15 
   99       3.600268873763e-10       1.017940929085e-13      -3.032398844739e-12       4.488534291454e-16       1.084390110061e-11       1.566951075503e-12      -7.488828655764e-15 
  100       3.643074962382e-10       1.038009306212e-13      -3.121303147906e-12       4.581070779205e-16       1.056605674593e-11       1.534216438480e-12      -7.405387074505e-15 
  101       3.686164229074e-10       1.057886129636e-13      -3.210306844167e-12       4.674644270692e-16       1.029779033158e-11       1.502519200668e-12      -7.324639296249e-15 
  102       3.729525739288e-10       1.077550722525e-13      -3.299338321014e-12       4.769264218824e-16       1.003837337794e-11       1.471773950715e-12      -7.245705243613e-15 
  103       3.773146464194e-10       1.096982128099e-13      -3.388324718679e-12       4.864940536068e-16       9.786948150037e-12       1.441880059124e-12      -7.167609813291e-15 
  104       3.817013969826e-10       1.116159676776e-13      -3.477192771289e-12       4.961682904463e-16       9.542722580778e-12       1.412745177071e-12      -7.089497450244e-15 
  105       3.861125053579e-10       1.135064766500e-13      -3.565871426360e-12       5.059498578867e-16       9.305593446586e-12       1.384360344367e-12      -7.011314493082e-15 
  106       3.905478145359e-10       1.153679331248e-13      -3.654289609697e-12       5.158394303432e-16       9.075600479849e-12       1.356734212354e-12      -6.933214575681e-15 
  107       3.950070609228e-10       1.171985309182e-13      -3.742375455615e-12       5.258376986528e-16       8.852733352521e-12       1.329869791686e-12      -6.855349462709e-15 
