# dimensionless total lensed [l(l+1)/2pi] C_l's
# for l=2 to 2500, i.e. number of multipoles equal to 2499
#
# -> if you prefer output in CAMB/HealPix/LensPix units/order, set 'format' to 'camb' in input file
# -> if you don't want to see such a header, set 'headers' to 'no' in input file
# -> for CMB lensing (phi), these are C_l^phi-phi for the lensing potential.
#    Remember the conversion factors:
#    C_l^dd (deflection) = l(l+1) C_l^phi-phi
#    C_l^gg (shear/convergence) = 1/4 (l(l+1))^2 C_l^phi-phi
#
# 1:l     2:TT                     3:EE                     4:TE                     5:BB                     6:phiphi                 7:TPhi                   8:Ephi               
    2       1.319837711637e-10       6.278406151817e-15       4.008052136840e-13       2.486234203274e-19       8.040341709356e-09       4.664455864557e-10      -2.160369218879e-12 
    3       1.248463908126e-10       9.845728910974e-15       4.955335672076e-13       4.974149319323e-19       4.997166930716e-09       3.332551996599e-10      -1.838362586746e-12 
    4       1.178489030543e-10       1.057282142550e-14       5.026237484907e-13       8.293932040648e-19       3.495607774404e-09       2.542414511049e-10      -1.399211267996e-12 
    5       1.124510504662e-10       8.922051087251e-15       4.608400487514e-13       1.244768026846e-18       2.622048713671e-09       2.021744630447e-10      -9.732479598064e-13 
    6       1.086054291136e-10       6.249625170465e-15       3.964551588756e-13       1.743789759858e-18       2.056985712728e-09       1.653873560393e-10      -6.054531324077e-13 
    7       1.060182358238e-10       3.787309004645e-15       3.270809629488e-13       2.326742085602e-18       1.665841591372e-09       1.381698828358e-10      -3.150770572008e-13 
    8       1.044933264788e-10       2.137655518808e-15       2.629478333726e-13       2.993933950630e-18       1.381560904964e-09       1.173874053748e-10      -1.063791269188e-13 
    9       1.036977196912e-10       1.307757879231e-15       2.098316627003e-13       3.745690998742e-18       1.166949798114e-09       1.011299725175e-10       2.611811849464e-14 
   10       1.035182361534e-10       9.995220516954e-16       1.702933961534e-13       4.582346818016e-18       1.000061196411e-09       8.814165350630e-11       9.434784138019e-14 
   11       1.037872155223e-10       8.978865006687e-16       1.444302919222e-13       5.504234327933e-18       8.440867371922e-10       7.783435854625e-11       1.135903285047e-13 
   12       1.043968898757e-10       8.203563317014e-16       1.307535894056e-13       6.511677624431e-18       7.391327982713e-10       6.882412620130e-11       1.003008684561e-13 
   13       1.052831540717e-10       7.234645079331e-16       1.267671158340e-13       7.604984579578e-18       6.527741072121e-10       6.151836141822e-11       6.965208376458e-14 
   14       1.064093129839e-10       6.353370071061e-16       1.296138998430e-13       8.784440459675e-18       5.807796322317e-10       5.538058059499e-11       3.321980885689e-14 
   15       1.076978680549e-10       5.880339889025e-16       1.365432556374e-13       1.005030278233e-17       5.200604292716e-10       5.004940450634e-11      -4.885655127469e-16 
   16       1.091212500127e-10       5.873534980174e-16       1.452322250816e-13       1.140279758104e-17       4.683381415227e-10       4.545829864798e-11      -2.610542997736e-14 
   17       1.106542664955e-10       6.177135820084e-16       1.541096617487e-13       1.284211718724e-17       4.238911260447e-10       4.147004928012e-11      -4.160354130834e-14 
   18       1.123101818332e-10       6.594481461213e-16       1.623132647859e-13       1.436841884483e-17       3.852501390197e-10       3.800390407840e-11      -4.739907841290e-14 
   19       1.140782678418e-10       7.086289385990e-16       1.695969423539e-13       1.598182926714e-17       3.518218740734e-10       3.498965853891e-11      -4.525724262965e-14 
   20       1.158856832835e-10       7.672539984732e-16       1.759359666324e-13       1.768243898063e-17       3.223369188152e-10       3.227246464203e-11      -3.816692977893e-14 
   21       1.177497223316e-10       8.443840240330e-16       1.816978723239e-13       1.947031680936e-17       2.963441630024e-10       2.982213606420e-11      -2.866527576643e-14 
   22       1.196863931572e-10       9.510174627035e-16       1.874260226218e-13       2.134550324340e-17       2.732328012550e-10       2.761512215822e-11      -1.942915108194e-14 
   23       1.216869991332e-10       1.089195081396e-15       1.934397661914e-13       2.330802808524e-17       2.526930811923e-10       2.565002069060e-11      -1.193123348490e-14 
   24       1.237182210677e-10       1.257052592275e-15       1.999530257697e-13       2.535790376833e-17       2.342581953065e-10       2.390587402952e-11      -7.164511577940e-15 
   25       1.257917891228e-10       1.452154906875e-15       2.069389646876e-13       2.749514638196e-17       2.177164405749e-10       2.235270730351e-11      -5.164287758410e-15 
   26       1.279174487851e-10       1.671477497021e-15       2.142293435294e-13       2.971976753146e-17       2.027734257124e-10       2.094147957208e-11      -5.480661897837e-15 
   27       1.300876282032e-10       1.914258860924e-15       2.215437737608e-13       3.203179295635e-17       1.892543142454e-10       1.964777400475e-11      -7.430049508200e-15 
   28       1.322818031944e-10       2.180223939450e-15       2.285227010416e-13       3.443125723997e-17       1.769306382688e-10       1.844776588551e-11      -1.015081165887e-14 
   29       1.345073618340e-10       2.469312279963e-15       2.348628504734e-13       3.691822635652e-17       1.657417646523e-10       1.734311656298e-11      -1.302232550157e-14 
   30       1.367702680616e-10       2.781315502257e-15       2.402258781579e-13       3.949278394870e-17       1.555695792334e-10       1.633514455155e-11      -1.537685023965e-14 
   31       1.390667075024e-10       3.116107377172e-15       2.442679010998e-13       4.215503120747e-17       1.462092041166e-10       1.541630760246e-11      -1.655913304057e-14 
   32       1.413987008250e-10       3.475009375245e-15       2.468834207534e-13       4.490510412199e-17       1.376140356132e-10       1.457948691758e-11      -1.657150582409e-14 
   33       1.437618290005e-10       3.859956957133e-15       2.480536453373e-13       4.774316700868e-17       1.297250861384e-10       1.381033295318e-11      -1.567719421988e-14 
   34       1.461451387671e-10       4.273023230982e-15       2.477926853313e-13       5.066940854620e-17       1.224340367603e-10       1.308991096458e-11      -1.420865812587e-14 
   35       1.485495963402e-10       4.715915153269e-15       2.461717977443e-13       5.368403418253e-17       1.157045600826e-10       1.241578146713e-11      -1.245124224750e-14 
   36       1.509744625715e-10       5.190318751139e-15       2.433081900927e-13       5.678727525376e-17       1.094835014886e-10       1.178734193417e-11      -1.072876450727e-14 
   37       1.534158050831e-10       5.697831233161e-15       2.393210671502e-13       5.997938012514e-17       1.036909111537e-10       1.120143610842e-11      -9.362651229774e-15 
   38       1.558808857154e-10       6.239249430171e-15       2.341929207213e-13       6.326056871220e-17       9.831247543916e-11       1.065773437879e-11      -8.409393088195e-15 
   39       1.583775334202e-10       6.815038263300e-15       2.278634342579e-13       6.663106573472e-17       9.333178371794e-11       1.015459025899e-11      -7.837613815182e-15 
   40       1.609097029390e-10       7.425507406139e-15       2.202658647550e-13       7.009111450113e-17       8.870220188193e-11       9.687252006274e-12      -7.596428212439e-15 
   41       1.634775394255e-10       8.070903391086e-15       2.113270603155e-13       7.364095512732e-17       8.436326177325e-11       9.249488405940e-12      -7.615910482864e-15 
   42       1.660787083894e-10       8.751747991292e-15       2.009689466698e-13       7.728074766188e-17       8.030259548647e-11       8.839756370943e-12      -7.812332947721e-15 
   43       1.687067209630e-10       9.468591787815e-15       1.891065254636e-13       8.101062603851e-17       7.650971720057e-11       8.456583385797e-12      -8.082076837830e-15 
   44       1.713500264770e-10       1.022191708174e-14       1.756467633409e-13       8.483071861881e-17       7.295742405800e-11       8.096704170711e-12      -8.298435913009e-15 
   45       1.739968028472e-10       1.101216933466e-14       1.605044403228e-13       8.874112685283e-17       6.961159319539e-11       7.756192173909e-12      -8.343420215247e-15 
   46       1.766520388258e-10       1.183987149596e-14       1.436566353047e-13       9.274185446963e-17       6.646720611235e-11       7.434590723819e-12      -8.217745695313e-15 
   47       1.793248344477e-10       1.270553750476e-14       1.251035981594e-13       9.683285652795e-17       6.352082714768e-11       7.131776342498e-12      -7.961388255113e-15 
   48       1.820235061554e-10       1.360963842053e-14       1.048541543488e-13       1.010140570562e-16       6.075973491682e-11       6.846726683131e-12      -7.623781650627e-15 
   49       1.847554614489e-10       1.455260071572e-14       8.292610162602e-14       1.052853474970e-16       5.816123055884e-11       6.577452404465e-12      -7.264353309633e-15 
   50       1.875260992506e-10       1.553476687443e-14       5.933866450039e-14       1.096465835906e-16       5.569951919352e-11       6.321659041914e-12      -6.941412746200e-15 
   51       1.903354499265e-10       1.655626854123e-14       3.408652271469e-14       1.140975786375e-16       5.337016122566e-11       6.079102470929e-12      -6.674017999640e-15 
   52       1.931804065617e-10       1.761711598866e-14       7.159418814715e-15       1.186381057184e-16       5.117106233354e-11       5.849755048315e-12      -6.470684465266e-15 
   53       1.960554523969e-10       1.871722940308e-14      -2.145049335637e-14       1.232678975048e-16       4.909515292966e-11       5.633098524882e-12      -6.340115615670e-15 
   54       1.989524896299e-10       1.985643540348e-14      -5.174862570875e-14       1.279866446296e-16       4.713005279421e-11       5.428090272655e-12      -6.291190705357e-15 
   55       2.018636451523e-10       2.103452500708e-14      -8.374048268252e-14       1.327940274015e-16       4.526187281005e-11       5.233486960049e-12      -6.329542173314e-15 
   56       2.047908961762e-10       2.225145236426e-14      -1.174400292143e-13       1.376898239039e-16       4.348849442177e-11       5.048987107785e-12      -6.446320353587e-15 
   57       2.077385359523e-10       2.350717929599e-14      -1.528633613556e-13       1.426738258963e-16       4.180900165839e-11       4.874313212708e-12      -6.626616141314e-15 
   58       2.107103523247e-10       2.480161710894e-14      -1.900264134053e-13       1.477458075022e-16       4.021966267165e-11       4.708859753498e-12      -6.852484751997e-15 
   59       2.137095725176e-10       2.613462550827e-14      -2.289450343004e-13       1.529055248784e-16       3.871375555519e-11       4.551673344421e-12      -7.102800557228e-15 
   60       2.167388079203e-10       2.750601151042e-14      -2.696350640065e-13       1.581527158858e-16       3.728139416368e-11       4.401432889102e-12      -7.353111920409e-15 
   61       2.198000725214e-10       2.891552291078e-14      -3.121097575787e-13       1.634871489438e-16       3.591228745672e-11       4.256818483186e-12      -7.581142726105e-15 
   62       2.228949679539e-10       3.036282943287e-14      -3.563712088694e-13       1.689087831572e-16       3.460513534129e-11       4.117759781732e-12      -7.785068396595e-15 
   63       2.260244421958e-10       3.184753539935e-14      -4.024171285754e-13       1.744176437099e-16       3.336004233800e-11       3.984433899011e-12      -7.969103196068e-15 
   64       2.291886677579e-10       3.336918356883e-14      -4.502433190865e-13       1.800137770574e-16       3.217569066239e-11       3.856894023065e-12      -8.138248854770e-15 
   65       2.323869888062e-10       3.492725387583e-14      -4.998436667199e-13       1.856972521580e-16       3.104925912259e-11       3.735061904183e-12      -8.298328570050e-15 
   66       2.356178682848e-10       3.652116217088e-14      -5.512101339545e-13       1.914681617031e-16       2.997634201705e-11       3.618720343367e-12      -8.456021007401e-15 
   67       2.388788350384e-10       3.815025896047e-14      -6.043327516647e-13       1.973266233482e-16       2.895086803217e-11       3.507505680807e-12      -8.618894301503e-15 
   68       2.421674554785e-10       3.981381143053e-14      -6.591980088667e-13       2.032727785022e-16       2.796672899025e-11       3.401018432676e-12      -8.793201148579e-15 
   69       2.454845954058e-10       4.151094810312e-14      -7.157836604309e-13       2.093067856613e-16       2.702323061566e-11       3.299198024190e-12      -8.976669279321e-15 
   70       2.488317271645e-10       4.324070065077e-14      -7.740628484903e-13       2.154288279294e-16       2.612060561633e-11       3.202010842170e-12      -9.164304514933e-15 
   71       2.522099373816e-10       4.500201796358e-14      -8.340055639642e-13       2.216391164862e-16       2.525836485424e-11       3.109334395705e-12      -9.350477578321e-15 
   72       2.556199002930e-10       4.679376446173e-14      -8.955785978083e-13       2.279378917563e-16       2.443525997329e-11       3.020952826315e-12      -9.528900834040e-15 
   73       2.590618510688e-10       4.861471840799e-14      -9.587454922642e-13       2.343254245767e-16       2.364924602721e-11       2.936552418120e-12      -9.692605028247e-15 
   74       2.625355591400e-10       5.046357022022e-14      -1.023466492110e-12       2.408020173655e-16       2.289744410735e-11       2.855717108009e-12      -9.833916028655e-15 
   75       2.660403015233e-10       5.233892078383e-14      -1.089698495908e-12       2.473680052899e-16       2.217610397063e-11       2.777923995805e-12      -9.944431564481e-15 
   76       2.695753455352e-10       5.423933603544e-14      -1.157398665874e-12       2.540237020090e-16       2.148153859142e-11       2.702673436133e-12      -1.001695580543e-14 
   77       2.731415575203e-10       5.616352593521e-14      -1.226536125205e-12       2.607692228971e-16       2.081320717738e-11       2.629916626668e-12      -1.005176179538e-14 
   78       2.767400403834e-10       5.811019521678e-14      -1.297082315154e-12       2.676046315566e-16       2.017112907083e-11       2.559698197810e-12      -1.005143405054e-14 
   79       2.803716342607e-10       6.007798948639e-14      -1.369007551499e-12       2.745299924155e-16       1.955494453998e-11       2.492026846120e-12      -1.001902864426e-14 
   80       2.840369002915e-10       6.206549468933e-14      -1.442281050809e-12       2.815453707588e-16       1.896389733693e-11       2.426873604196e-12      -9.958090094031e-15 
   81       2.877361043888e-10       6.407123657628e-14      -1.516870956722e-12       2.886508327606e-16       1.839681725561e-11       2.364170110544e-12      -9.872668248541e-15 
   82       2.914692010110e-10       6.609368016970e-14      -1.592744366217e-12       2.958464455152e-16       1.785210268970e-11       2.303806879460e-12      -9.767335174687e-15 
   83       2.952358169328e-10       6.813122923021e-14      -1.669867355886e-12       3.031322770693e-16       1.732770319064e-11       2.245631570895e-12      -9.647202044608e-15 
   84       2.990355059709e-10       7.018225421675e-14      -1.748202433568e-12       3.105084038754e-16       1.682161985044e-11       2.189488820327e-12      -9.517104293009e-15 
   85       3.028685972281e-10       7.224518266169e-14      -1.827700350311e-12       3.179749345024e-16       1.633353996755e-11       2.135351104797e-12      -9.378964890398e-15 
   86       3.067354583694e-10       7.431842286930e-14      -1.908306972865e-12       3.255319899321e-16       1.586344265486e-11       2.083206500459e-12      -9.234022885576e-15 
   87       3.106362256672e-10       7.640033670012e-14      -1.989965720886e-12       3.331796966412e-16       1.541109649884e-11       2.033018035073e-12      -9.083629136469e-15 
   88       3.145707923271e-10       7.848923951625e-14      -2.072617549933e-12       3.409181867574e-16       1.497605082047e-11       1.984722656364e-12      -8.929249218500e-15 
   89       3.185387968123e-10       8.058340012659e-14      -2.156200934472e-12       3.487475982160e-16       1.455762693611e-11       1.938230200387e-12      -8.772466332969e-15 
   90       3.225396111689e-10       8.268104073212e-14      -2.240651850877e-12       3.566680749162e-16       1.415490941842e-11       1.893422359886e-12      -8.614984215431e-15 
   91       3.265723293514e-10       8.478033687118e-14      -2.325903760434e-12       3.646797668780e-16       1.376673735723e-11       1.850151652655e-12      -8.458630044065e-15 
   92       3.306357555470e-10       8.687941736471e-14      -2.411887592337e-12       3.727828303980e-16       1.339169562045e-11       1.808240389904e-12      -8.305357348061e-15 
   93       3.347287568804e-10       8.897639091466e-14      -2.498534245984e-12       3.809774942803e-16       1.302845171787e-11       1.767522996509e-12      -8.156929333053e-15 
   94       3.388514075642e-10       9.106943059415e-14      -2.585782565270e-12       3.892642695830e-16       1.267684332929e-11       1.727982493449e-12      -8.013908058698e-15 
   95       3.430039960437e-10       9.315670202258e-14      -2.673572537778e-12       3.976437718535e-16       1.233693894404e-11       1.689632730454e-12      -7.876517903237e-15 
   96       3.471866693664e-10       9.523633815168e-14      -2.761842899700e-12       4.061166589144e-16       1.200870289047e-11       1.652476432405e-12      -7.744950141786e-15 
   97       3.513994265095e-10       9.730643957664e-14      -2.850531153425e-12       4.146836319269e-16       1.169199134082e-11       1.616504762774e-12      -7.619361467849e-15 
   98       3.556421117060e-10       9.936507484728e-14      -2.939573585116e-12       4.233454364544e-16       1.138654831619e-11       1.581696887075e-12      -7.499872514831e-15 
   99       3.599144077722e-10       1.014102807791e-13      -3.028905282299e-12       4.321028635258e-16       1.109200169147e-11       1.548019536308e-12      -7.386566377552e-15 
  100       3.642158294342e-10       1.034400627646e-13      -3.118460151443e-12       4.409567506986e-16       1.080785920025e-11       1.515426570403e-12      -7.279487133765e-15 
  101       3.685457166547e-10       1.054523950841e-13      -3.208170935544e-12       4.499079831232e-16       1.053350443977e-11       1.483858541668e-12      -7.178638365663e-15 
  102       3.729032279602e-10       1.074452212171e-13      -3.297969231711e-12       4.589574946053e-16       1.026819287581e-11       1.453242258235e-12      -7.083981681397e-15 
  103       3.772873337675e-10       1.094164541534e-13      -3.387785508746e-12       4.681062686701e-16       1.001104784769e-11       1.423490347504e-12      -6.995435236590e-15 
  104       3.816970249159e-10       1.113640343731e-13      -3.477549515974e-12       4.773552601068e-16       9.761259852258e-12       1.394521958726e-12      -6.912845750139e-15 
  105       3.861319847188e-10       1.132861120367e-13      -3.567191534759e-12       4.867051452433e-16       9.518723659991e-12       1.366328996015e-12      -6.835903430797e-15 
  106       3.905919956786e-10       1.151808901010e-13      -3.656641329615e-12       4.961565397625e-16       9.283480216728e-12       1.338918060242e-12      -6.764212748588e-15 
  107       3.950767281317e-10       1.170465697812e-13      -3.745827793682e-12       5.057100753965e-16       9.055519310033e-12       1.312289907069e-12      -6.697316165883e-15 
