# dimensionless total lensed [l(l+1)/2pi] C_l's
# for l=2 to 2500, i.e. number of multipoles equal to 2499
#
# -> if you prefer output in CAMB/HealPix/LensPix units/order, set 'format' to 'camb' in input file
# -> if you don't want to see such a header, set 'headers' to 'no' in input file
# -> for CMB lensing (phi), these are C_l^phi-phi for the lensing potential.
#    Remember the conversion factors:
#    C_l^dd (deflection) = l(l+1) C_l^phi-phi
#    C_l^gg (shear/convergence) = 1/4 (l(l+1))^2 C_l^phi-phi
#
# 1:l     2:TT                     3:EE                     4:TE                     5:BB                     6:phiphi                 7:TPhi                   8:Ephi               
    2       1.319837739544e-10       6.278419606447e-15       4.008052136782e-13       2.620780511024e-19       8.010321015484e-09       4.658944035464e-10      -2.160318530708e-12 
    3       1.248463964010e-10       9.845755820079e-15       4.955335671822e-13       5.243240453236e-19       4.977210653035e-09       3.328008138089e-10      -1.838325879834e-12 
    4       1.178489123833e-10       1.057286627365e-14       5.026237484191e-13       8.742413944652e-19       3.481733700441e-09       2.538575151784e-10      -1.399192193689e-12 
    5       1.124510644872e-10       8.922118358765e-15       4.608400485921e-13       1.312039683837e-18       2.611962328520e-09       2.018428648479e-10      -9.732420264821e-13 
    6       1.086054487876e-10       6.249719349319e-15       3.964551585719e-13       1.837969011205e-18       2.049393356523e-09       1.650962463880e-10      -6.054559790233e-13 
    7       1.060182621222e-10       3.787434574349e-15       3.270809624294e-13       2.452312737000e-18       1.659978954065e-09       1.379116919044e-10      -3.150851801213e-13 
    8       1.044933603836e-10       2.137816962264e-15       2.629478325545e-13       3.155379422135e-18       1.376955678978e-09       1.171560012470e-10      -1.063898349347e-13 
    9       1.036977621951e-10       1.307959678565e-15       2.098316614944e-13       3.947494258099e-18       1.163298734491e-09       1.009197024522e-10       2.610680472838e-14 
   10       1.035182882586e-10       9.997686880578e-16       1.702933944715e-13       4.828990311364e-18       9.971632248174e-10       8.794863797652e-11       9.433724300520e-14 
   11       1.037872782393e-10       8.981824540145e-16       1.444302896865e-13       5.800199908677e-18       8.400401577517e-10       7.766036230667e-11       1.135826310892e-13 
   12       1.043969642212e-10       8.207060805370e-16       1.307535865605e-13       6.861446481309e-18       7.355459086493e-10       6.866514876647e-11       1.002942916971e-13 
   13       1.052832410665e-10       7.238725290418e-16       1.267671123588e-13       8.013037165204e-18       6.495726146553e-10       6.137199965983e-11       6.964730276371e-14 
   14       1.064094136497e-10       6.358077752498e-16       1.296138957679e-13       9.255256421045e-18       5.779047136587e-10       5.524546708427e-11       3.321560570267e-14 
   15       1.076979834117e-10       5.885719765032e-16       1.365432510591e-13       1.058836089490e-17       5.174660200932e-10       4.992485491100e-11      -4.914373677747e-16 
   16       1.091213810750e-10       5.879631748226e-16       1.452322201808e-13       1.201257568810e-17       4.659857768080e-10       4.534195102695e-11      -2.610771906126e-14 
   17       1.106544142691e-10       6.183994147428e-16       1.541096568087e-13       1.352809214632e-17       4.217494480862e-10       4.136266577966e-11      -4.160557261944e-14 
   18       1.123103473117e-10       6.602145981278e-16       1.623132602106e-13       1.513506648185e-17       3.832934107749e-10       3.790430445315e-11      -4.740104102026e-14 
   19       1.140784520034e-10       7.094804694830e-16       1.695969386859e-13       1.683362434569e-17       3.500281477098e-10       3.489634939788e-11      -4.525926819795e-14 
   20       1.158858870875e-10       7.681950637262e-16       1.759359645720e-13       1.862385517253e-17       3.206881755874e-10       3.218500040913e-11      -3.816896567465e-14 
   21       1.177499467160e-10       8.454190746834e-16       1.816978727450e-13       2.050582669156e-17       2.948241979904e-10       2.974015732480e-11      -2.866722931354e-14 
   22       1.196866390358e-10       9.521509449450e-16       1.874260265900e-13       2.247957829515e-17       2.718285459240e-10       2.753813692372e-11      -1.943094516314e-14 
   23       1.216872673941e-10       1.090431436251e-15       1.934397749777e-13       2.454513871270e-17       2.513926971796e-10       2.557763276589e-11      -1.193283249706e-14 
   24       1.237185125710e-10       1.258396255236e-15       1.999530408661e-13       2.670251932970e-17       2.330517002563e-10       2.383789199087e-11      -7.165934657081e-15 
   25       1.257921047006e-10       1.453610307593e-15       2.069389878183e-13       2.895173524096e-17       2.165947737585e-10       2.228891796361e-11      -5.165589432981e-15 
   26       1.279177892397e-10       1.673049058962e-15       2.142293766640e-13       3.129279711061e-17       2.017289434756e-10       2.088159694324e-11      -5.481909021123e-15 
   27       1.300879943081e-10       1.915951001074e-15       2.215438191234e-13       3.372572981410e-17       1.882801206831e-10       1.959143555438e-11      -7.431229993324e-15 
   28       1.322821956939e-10       2.182041067996e-15       2.285227611214e-13       3.625056714929e-17       1.760208380991e-10       1.839456558013e-11      -1.015182051513e-14 
   29       1.345077814449e-10       2.471258800030e-15       2.348629280308e-13       3.886737440282e-17       1.648907358074e-10       1.729269020847e-11      -1.302310201023e-14 
   30       1.367707154739e-10       2.783395809601e-15       2.402259762334e-13       4.157623462909e-17       1.547723047614e-10       1.628723971432e-11      -1.537743802236e-14 
   31       1.390671833800e-10       3.118325859874e-15       2.442680230235e-13       4.437724853288e-17       1.454617043104e-10       1.537080541461e-11      -1.655967324818e-14 
   32       1.413992058079e-10       3.477370413452e-15       2.468835701511e-13       4.727055171649e-17       1.369125086214e-10       1.453626999294e-11      -1.657210524927e-14 
   33       1.437623637063e-10       3.862464922774e-15       2.480538261378e-13       5.025630822634e-17       1.290659436535e-10       1.376925351242e-11      -1.567786986107e-14 
   34       1.461457037924e-10       4.275682487465e-15       2.477929017750e-13       5.333470658701e-17       1.218141586721e-10       1.305080662826e-11      -1.420933912996e-14 
   35       1.485501922616e-10       4.718730055189e-15       2.461720543940e-13       5.650595216986e-17       1.151210028254e-10       1.237851409066e-11      -1.245186553078e-14 
   36       1.509750899473e-10       5.193293643978e-15       2.433084918422e-13       5.977027635100e-17       1.089336129811e-10       1.175182441861e-11      -1.072930965586e-14 
   37       1.534164644545e-10       5.700970452977e-15       2.393214192349e-13       6.312792763967e-17       1.031724697550e-10       1.116763476474e-11      -9.363140213004e-15 
   38       1.558815776045e-10       6.242557303235e-15       2.341933287384e-13       6.657912609354e-17       9.782332771891e-11       1.062560171074e-11      -8.409851208682e-15 
   39       1.583782583305e-10       6.818519105766e-15       2.278639041800e-13       7.012409665425e-17       9.286984837714e-11       1.012404564046e-11      -7.838056869399e-15 
   40       1.609104613567e-10       7.429165523727e-15       2.202664029405e-13       7.376308296697e-17       8.826562534208e-11       9.658181202844e-12      -7.596859794636e-15 
   41       1.634783318194e-10       8.074743078742e-15       2.113276735239e-13       7.749632555510e-17       8.395049066349e-11       9.221752280798e-12      -7.616322704786e-15 
   42       1.660795352059e-10       8.755773532763e-15       2.009696420910e-13       8.132398478314e-17       7.991213443673e-11       8.813230324162e-12      -7.812719182429e-15 
   43       1.687075826244e-10       9.472807455279e-15       1.891073107375e-13       8.524619492762e-17       7.614012188666e-11       8.431176356003e-12      -8.082436046056e-15 
   44       1.713509233816e-10       1.022632713545e-14       1.756476465731e-13       8.926308476675e-17       7.260738905814e-11       8.072370266747e-12      -8.298773772235e-15 
   45       1.739977353678e-10       1.101677802262e-14       1.605054301030e-13       9.337475618913e-17       6.927998913992e-11       7.732929561710e-12      -8.343748528791e-15 
   46       1.766530073027e-10       1.184468305356e-14       1.436577407334e-13       9.758121320565e-17       6.615293010977e-11       7.412395869498e-12      -8.218075875973e-15 
   47       1.793258391860e-10       1.271055615444e-14       1.251048288684e-13       1.018824111288e-16       6.322279604058e-11       7.110630899341e-12      -7.961729072709e-15 
   48       1.820245474234e-10       1.361486837143e-14       1.048555205212e-13       1.062782742606e-16       6.047693500430e-11       6.826596768334e-12      -7.624138573206e-15 
   49       1.847565394763e-10       1.455804616333e-14       8.292761401550e-14       1.107686943358e-16       5.789277100768e-11       6.558287888066e-12      -7.264727806518e-15 
   50       1.875272142261e-10       1.554043200030e-14       5.934033444774e-14       1.153535273686e-16       5.544464814789e-11       6.303395386504e-12      -6.941801984778e-15 
   51       1.903366019947e-10       1.656215751294e-14       3.408836215285e-14       1.200325867938e-16       5.312814951812e-11       6.061671011653e-12      -6.674415937859e-15 
   52       1.931815958202e-10       1.762323295961e-14       7.161440282652e-15       1.248056457730e-16       5.094119003286e-11       5.833087144687e-12      -6.471081861324e-15 
   53       1.960566788941e-10       1.872357851223e-14      -2.144827669625e-14       1.296724370356e-16       4.887673545600e-11       5.617127502790e-12      -6.340499621519e-15 
   54       1.989537533625e-10       1.986302077503e-14      -5.174620005307e-14       1.346326512470e-16       4.692246879406e-11       5.412753498030e-12      -6.291544442378e-15 
   55       2.018649460648e-10       2.104135075040e-14      -8.373783358107e-14       1.396859687246e-16       4.506457254832e-11       5.218727543448e-12      -6.329845894681e-15 
   56       2.047922341656e-10       2.225852257436e-14      -1.174371416032e-13       1.448321675514e-16       4.330094002571e-11       5.034754092754e-12      -6.446557869080e-15 
   57       2.077399108686e-10       2.351449805361e-14      -1.528602195609e-13       1.500710394620e-16       4.163066166264e-11       4.860563134319e-12      -6.626777255763e-15 
   58       2.107117639701e-10       2.480918848044e-14      -1.900230011359e-13       1.554023585220e-16       4.005002723475e-11       4.695558774327e-12      -6.852566257459e-15 
   59       2.137110206451e-10       2.614245354549e-14      -2.289413346407e-13       1.608258807959e-16       3.855235260820e-11       4.538799502688e-12      -7.102807269853e-15 
   60       2.167402922330e-10       2.751410025064e-14      -2.696310594103e-13       1.663413440143e-16       3.712780649105e-11       4.388978458946e-12      -7.353057761988e-15 
   61       2.198015926735e-10       2.892387637684e-14      -3.121054298764e-13       1.719485164508e-16       3.576615479072e-11       4.244788882772e-12      -7.581049569552e-15 
   62       2.228965235607e-10       3.037145163413e-14      -3.563665393218e-13       1.776473571260e-16       3.446610545750e-11       4.106160965621e-12      -7.784957515630e-15 
   63       2.260260328373e-10       3.185643033202e-14      -4.024120978921e-13       1.834378911365e-16       3.322776330456e-11       3.973268868679e-12      -7.968992522375e-15 
   64       2.291902929793e-10       3.337835521612e-14      -4.502379074319e-13       1.893201648231e-16       3.204981841638e-11       3.846162672742e-12      -8.138152342280e-15 
   65       2.323886481194e-10       3.493670620811e-14      -4.998378537205e-13       1.952942469993e-16       3.092946547352e-11       3.724760865739e-12      -8.298255531544e-15 
   66       2.356195611694e-10       3.653089914582e-14      -5.512038987059e-13       2.013602301804e-16       2.986232307743e-11       3.608842830267e-12      -8.455975423433e-15 
   67       2.388805609429e-10       3.816028452329e-14      -6.043260727406e-13       2.075182318121e-16       2.884235307521e-11       3.498041331113e-12      -8.618874101637e-15 
   68       2.421692138209e-10       3.982412951426e-14      -6.591908643274e-13       2.137683930279e-16       2.786348062583e-11       3.391953525723e-12      -8.793198765959e-15 
   69       2.454863855712e-10       4.152156262930e-14      -7.157760278330e-13       2.201108718818e-16       2.692501592372e-11       3.290516908296e-12      -8.976676386712e-15 
   70       2.488335485050e-10       4.325161552982e-14      -7.740547048968e-13       2.265458509456e-16       2.602719117827e-11       3.193696396135e-12      -9.164313380732e-15 
   71       2.522117892176e-10       4.501323709517e-14      -8.339968859560e-13       2.330735408035e-16       2.516952056313e-11       3.101368145883e-12      -9.350481202012e-15 
   72       2.556217819136e-10       4.680529173511e-14      -8.955693614959e-13       2.396941812180e-16       2.435076303826e-11       3.013315072334e-12      -9.528893087241e-15 
   73       2.590637617335e-10       4.862655770238e-14      -9.587356733006e-13       2.464080422957e-16       2.356888517186e-11       2.929222367232e-12      -9.692580801353e-15 
   74       2.625374980791e-10       5.047572540517e-14      -1.023456065704e-12       2.532154256521e-16       2.282102396246e-11       2.848673018082e-12      -9.833871383069e-15 
   75       2.660422679394e-10       5.235139571967e-14      -1.089687436838e-12       2.601166655781e-16       2.210344966086e-11       2.771143326951e-12      -9.944363890440e-15 
   76       2.695773386004e-10       5.425213457363e-14      -1.157386948496e-12       2.671120746886e-16       2.141249540371e-11       2.696133375028e-12      -1.001686394571e-14 
   77       2.731435763608e-10       5.617665191874e-14      -1.226523723433e-12       2.742017668504e-16       2.074762400943e-11       2.623595788327e-12      -1.005164604709e-14 
   78       2.767420840750e-10       5.812365248055e-14      -1.297069202465e-12       2.813858039325e-16       2.010885548063e-11       2.553577381312e-12      -1.005129627665e-14 
   79       2.803737018276e-10       6.009178185772e-14      -1.368993700944e-12       2.886642484841e-16       1.949583273343e-11       2.486089461170e-12      -1.001887242757e-14 
   80       2.840389907044e-10       6.207962598841e-14      -1.442266435026e-12       2.960371637622e-16       1.890780424471e-11       2.421106113785e-12      -9.957920895939e-15 
   81       2.877382165643e-10       6.408571061671e-14      -1.516855547948e-12       3.035046137586e-16       1.834360669934e-11       2.358562489721e-12      -9.872493572541e-15 
   82       2.914713338099e-10       6.610850075898e-14      -1.592728136303e-12       3.110666632275e-16       1.780164763750e-11       2.298353090191e-12      -9.767164734695e-15 
   83       2.952379691590e-10       6.814640017030e-14      -1.669850276308e-12       3.187233777120e-16       1.727988810188e-11       2.240330053043e-12      -9.647047938031e-15 
   84       2.990376763708e-10       7.019777930477e-14      -1.748184475462e-12       3.264748309783e-16       1.677634036419e-11       2.184341971658e-12      -9.516980284585e-15 
   85       3.028707844930e-10       7.226106569112e-14      -1.827681484552e-12       3.343211286733e-16       1.629069392046e-11       2.130361500269e-12      -9.378882848419e-15 
   86       3.067376611355e-10       7.433466763078e-14      -1.908287170108e-12       3.422623886564e-16       1.582292848919e-11       2.078375858686e-12      -9.233991600216e-15 
   87       3.106384425149e-10       7.641694698215e-14      -1.989944951591e-12       3.502987340920e-16       1.537281433099e-11       2.028347162645e-12      -9.083653980065e-15 
   88       3.145730217797e-10       7.850621910593e-14      -2.072595784392e-12       3.584302936006e-16       1.493990355258e-11       1.980211391014e-12      -8.929331795588e-15 
   89       3.185410373353e-10       8.060075281035e-14      -2.156178142838e-12       3.666572014106e-16       1.452352141085e-11       1.933877352993e-12      -8.772604120073e-15 
   90       3.225418611693e-10       8.269877029649e-14      -2.240628003190e-12       3.749795975099e-16       1.412275761695e-11       1.889225655320e-12      -8.615170190598e-15 
   91       3.265745871762e-10       8.479844710357e-14      -2.325878826652e-12       3.833976277978e-16       1.373645764032e-11       1.846107669472e-12      -8.458852306161e-15 
   92       3.306380194828e-10       8.689791205421e-14      -2.411861542365e-12       3.919114442364e-16       1.336321401271e-11       1.804344498867e-12      -8.305598725812e-15 
   93       3.347310251569e-10       8.899527385305e-14      -2.498507049732e-12       4.005212711619e-16       1.300170147617e-11       1.763769511662e-12      -8.157168409431e-15 
   94       3.388536783738e-10       9.108870557732e-14      -2.585754192797e-12       4.092276152975e-16       1.265175897451e-11       1.724365499892e-12      -8.014124707093e-15 
   95       3.430062675476e-10       9.317637285165e-14      -2.673542959363e-12       4.180310877539e-16       1.231345507267e-11       1.686146335523e-12      -7.876694974625e-15 
   96       3.471889396963e-10       9.525640863395e-14      -2.761812085894e-12       4.269323417295e-16       1.198675468981e-11       1.649114813965e-12      -7.745073795964e-15 
   97       3.514016937691e-10       9.732691352661e-14      -2.850499075094e-12       4.359320735708e-16       1.167151512318e-11       1.613262219296e-12      -7.619421513995e-15 
   98       3.556443739730e-10       9.938595608763e-14      -2.939540213496e-12       4.450310238313e-16       1.136748207218e-11       1.578567889479e-12      -7.499862761382e-15 
   99       3.599166630998e-10       1.014315731418e-13      -3.028870589044e-12       4.542299783323e-16       1.107428566218e-11       1.544998781587e-12      -7.386484991401e-15 
  100       3.642180758530e-10       1.034617700918e-13      -3.118424108681e-12       4.635297692220e-16       1.079143646853e-11       1.512509037019e-12      -7.279337008782e-15 
  101       3.685479521748e-10       1.054745212294e-13      -3.208133515928e-12       4.729312760358e-16       1.051832154052e-11       1.481039546722e-12      -7.178427500535e-15 
  102       3.729054505728e-10       1.074677700466e-13      -3.297930408474e-12       4.824354267558e-16       1.025420042526e-11       1.450517516415e-12      -7.083723566793e-15 
  103       3.772895414472e-10       1.094394295467e-13      -3.387745255759e-12       4.920431988707e-16       9.998201191649e-12       1.420856031802e-12      -6.995149251640e-15 
  104       3.816992156180e-10       1.113874402240e-13      -3.477507807783e-12       5.017555408844e-16       9.749518709889e-12       1.391974676975e-12      -6.912556072015e-15 
  105       3.861341563623e-10       1.133099522514e-13      -3.567148346563e-12       5.115731224816e-16       9.508048558250e-12       1.363865498101e-12      -6.835633234742e-15 
  106       3.905941461415e-10       1.152051685982e-13      -3.656596637301e-12       5.214965524316e-16       9.273831733984e-12       1.336535181395e-12      -6.763982495724e-15 
  107       3.950788552513e-10       1.170712904929e-13      -3.745781573873e-12       5.315264553098e-16       9.046858312240e-12       1.309984594687e-12      -6.697143323388e-15 
