# Matter power spectrum P(k) at redshift z=0
# for k=1.02819e-05 to 105.289 h/Mpc,
# number of wavenumbers equal to 624
#    1:k (h/Mpc)              2:P (Mpc/h)^3        
       1.028185622909e-05       4.062494344921e+01 
       2.292362608534e-05       9.057326512724e+01 
       3.560828760542e-05       1.406888362113e+02 
       4.836871162854e-05       1.911002774418e+02 
       6.123829341056e-05       2.419381897774e+02 
       7.425123948469e-05       2.933362699525e+02 
       8.744286337900e-05       3.454324421521e+02 
       1.008498939898e-04       3.983700279487e+02 
       1.145108004402e-04       4.522989864484e+02 
       1.284661372837e-04       5.073772188099e+02 
       1.427589139274e-04       5.637719661414e+02 
       1.574349921059e-04       6.215863172365e+02 
       1.725435151069e-04       6.811456631911e+02 
       1.881373721651e-04       7.425928050490e+02 
       2.042737009284e-04       8.061481707417e+02 
       2.210144300569e-04       8.720501318700e+02 
       2.384268627075e-04       9.405570870414e+02 
       2.565842997080e-04       1.011949683390e+03 
       2.755666984252e-04       1.086533098621e+03 
       2.954613594086e-04       1.164639391257e+03 
       3.163636275512e-04       1.246629813373e+03 
       3.383775873987e-04       1.332897011016e+03 
       3.616167230514e-04       1.423866979629e+03 
       3.862045015520e-04       1.520000583570e+03 
       4.122748246813e-04       1.621794417315e+03 
       4.399722779238e-04       1.729780696629e+03 
       4.694520878688e-04       1.844525843126e+03 
       5.008796821419e-04       1.966627307274e+03 
       5.344297319924e-04       2.096708199545e+03 
       5.702845511269e-04       2.235409238996e+03 
       6.086317309585e-04       2.383377605991e+03 
       6.496609187059e-04       2.541252410271e+03 
       6.935596970390e-04       2.709646724383e+03 
       7.405086061108e-04       2.889126470788e+03 
       7.906754593871e-04       3.080186951657e+03 
       8.442092339807e-04       3.283228238108e+03 
       9.012339445199e-04       3.498531240393e+03 
       9.618430087101e-04       3.726236559102e+03 
       1.026094651636e-03       3.966328352393e+03 
       1.094008850266e-03       4.218625232290e+03 
       1.165566182719e-03       4.482779519104e+03 
       1.240708735874e-03       4.758283168880e+03 
       1.319342979432e-03       5.044446611423e+03 
       1.401344285732e-03       5.340542874604e+03 
       1.486562608957e-03       5.645712938811e+03 
       1.574828762325e-03       5.959034685887e+03 
       1.665960749640e-03       6.279551156795e+03 
       1.759769698314e-03       6.606295929459e+03 
       1.856065072773e-03       6.938315144679e+03 
       1.954658987774e-03       7.274685167919e+03 
       2.055369565667e-03       7.614525996670e+03 
       2.158023376380e-03       7.957011239861e+03 
       2.262457060233e-03       8.301372359547e+03 
       2.368518264944e-03       8.646904498921e+03 
       2.476066036375e-03       8.992960133210e+03 
       2.584970795220e-03       9.338958109924e+03 
       2.695114015810e-03       9.684371373164e+03 
       2.806387703506e-03       1.002872773588e+04 
       2.918693747237e-03       1.037160873864e+04 
       3.031943205484e-03       1.071263758128e+04 
       3.146055568483e-03       1.105148647473e+04 
       3.260958026758e-03       1.138785989509e+04 
       3.376584766143e-03       1.172150119509e+04 
       3.492876301982e-03       1.205218509941e+04 
       3.609778859657e-03       1.237971092735e+04 
       3.727243804616e-03       1.270390676508e+04 
       3.845227122414e-03       1.302462025714e+04 
       3.963688947416e-03       1.334172338116e+04 
       4.082593137699e-03       1.365509986444e+04 
       4.201906893053e-03       1.396465743322e+04 
       4.321600412638e-03       1.427030794896e+04 
       4.441646588792e-03       1.457198786283e+04 
       4.562020733544e-03       1.486963898424e+04 
       4.682700334553e-03       1.516318327034e+04 
       4.803664837402e-03       1.545261167739e+04 
       4.924895451436e-03       1.573791255079e+04 
       5.046374976562e-03       1.601902994661e+04 
       5.168087648701e-03       1.629596311091e+04 
       5.290019001810e-03       1.656877305156e+04 
       5.412155744608e-03       1.683736992736e+04 
       5.534485650354e-03       1.710173707171e+04 
       5.656997458202e-03       1.736133540560e+04 
       5.779680784837e-03       1.761729134120e+04 
       5.902526045239e-03       1.786905088591e+04 
       6.025524381540e-03       1.811659855657e+04 
       6.148667599099e-03       1.836004855354e+04 
       6.271948108978e-03       1.859934544867e+04 
       6.395358876124e-03       1.883434407088e+04 
       6.518893372638e-03       1.906545819493e+04 
       6.642545535578e-03       1.929239706850e+04 
       6.766309728814e-03       1.951597262215e+04 
       6.890180708501e-03       1.973491338147e+04 
       7.014153591796e-03       1.994999350190e+04 
       7.138223828473e-03       2.016136200462e+04 
       7.262387175144e-03       2.036857523967e+04 
       7.386639671820e-03       2.057191801266e+04 
       7.510977620572e-03       2.077127687792e+04 
       7.635397566082e-03       2.096691909298e+04 
       7.759896277901e-03       2.115856100380e+04 
       7.884470734249e-03       2.134655936792e+04 
       8.009118107195e-03       2.153076409522e+04 
       8.133835749101e-03       2.171214076075e+04 
       8.258621180199e-03       2.188901055452e+04 
       8.383472077199e-03       2.206226718846e+04 
       8.508386262837e-03       2.223188343407e+04 
       8.633361696262e-03       2.239794369035e+04 
       8.758396464208e-03       2.256047104864e+04 
       8.883488772857e-03       2.271954800674e+04 
       9.008636940352e-03       2.287500370077e+04 
       9.133839389889e-03       2.302710101031e+04 
       9.259094643344e-03       2.317582111662e+04 
       9.384401315392e-03       2.332112245139e+04 
       9.509758108064e-03       2.346306933312e+04 
       9.635163805723e-03       2.360074837827e+04 
       9.760617270406e-03       2.373710083776e+04 
       9.886117437517e-03       2.386928638940e+04 
       1.001166331184e-02       2.399814140995e+04 
       1.013725396381e-02       2.412391894630e+04 
       1.026288852613e-02       2.424641232722e+04 
       1.038856619052e-02       2.436596308764e+04 
       1.051428620483e-02       2.448143112840e+04 
       1.064004787021e-02       2.459482300257e+04 
       1.076585053862e-02       2.470614979586e+04 
       1.089169361044e-02       2.481338341104e+04 
       1.101757653221e-02       2.491764134373e+04 
       1.114349879467e-02       2.501829887113e+04 
       1.126945993077e-02       2.511685032056e+04 
       1.139545951390e-02       2.521232868007e+04 
       1.152149715629e-02       2.530631959278e+04 
       1.164757250740e-02       2.539632295813e+04 
       1.177368525255e-02       2.548361118745e+04 
       1.189983511152e-02       2.556827584614e+04 
       1.202602183736e-02       2.564992947078e+04 
       1.215224521523e-02       2.572823873235e+04 
       1.227850506131e-02       2.580561323255e+04 
       1.240480122181e-02       2.587857153551e+04 
       1.253113357205e-02       2.595059087819e+04 
       1.265750201560e-02       2.601945076980e+04 
       1.278390648348e-02       2.608452200292e+04 
       1.291034693342e-02       2.614919184939e+04 
       1.303682334920e-02       2.621032300169e+04 
       1.316333573999e-02       2.626792376746e+04 
       1.328988413979e-02       2.632496925010e+04 
       1.341646860691e-02       2.637842504379e+04 
       1.354308922342e-02       2.643038334322e+04 
       1.366974609479e-02       2.647839612777e+04 
       1.379643934941e-02       2.652629340814e+04 
       1.392316913825e-02       2.657094672222e+04 
       1.404993563452e-02       2.661316258440e+04 
       1.417673903336e-02       2.665205118410e+04 
       1.430357955158e-02       2.669081068397e+04 
       1.443045742743e-02       2.672580919984e+04 
       1.455737292036e-02       2.675932401039e+04 
       1.468432631085e-02       2.679101882906e+04 
       1.481131790029e-02       2.681884448392e+04 
       1.493834801080e-02       2.684629809453e+04 
       1.506541698514e-02       2.687238898630e+04 
       1.519252518666e-02       2.689422948606e+04 
       1.531967299921e-02       2.691632452962e+04 
       1.544686082709e-02       2.693420364813e+04 
       1.557408909511e-02       2.695093365486e+04 
       1.570135824851e-02       2.696605398276e+04 
       1.582866875303e-02       2.697923139564e+04 
       1.595602109498e-02       2.699191951163e+04 
       1.608341578125e-02       2.700069514598e+04 
       1.621085333945e-02       2.700786695191e+04 
       1.633833431798e-02       2.701458956236e+04 
       1.646585928616e-02       2.701775467027e+04 
       1.659342883438e-02       2.702120649731e+04 
       1.672104357425e-02       2.702035619279e+04 
       1.684870413879e-02       2.701910971255e+04 
       1.697641118259e-02       2.701650305380e+04 
       1.710416538205e-02       2.701150421594e+04 
       1.723196743558e-02       2.700529786715e+04 
       1.735981806386e-02       2.699851032692e+04 
       1.748771801012e-02       2.698782306295e+04 
       1.761566804035e-02       2.697782930775e+04 
       1.774366894367e-02       2.696502945678e+04 
       1.787172153257e-02       2.695095620949e+04 
       1.799982664330e-02       2.693454351357e+04 
       1.812798513615e-02       2.691683318949e+04 
       1.825619789584e-02       2.689815862036e+04 
       1.838446583190e-02       2.687797055434e+04 
       1.851278987906e-02       2.685639741267e+04 
       1.864117099765e-02       2.683357827274e+04 
       1.876961017400e-02       2.680887830301e+04 
       1.889810842095e-02       2.678403455191e+04 
       1.902666677827e-02       2.675597398675e+04 
       1.915528631311e-02       2.672782005552e+04 
       1.928396812057e-02       2.669871970709e+04 
       1.941271332416e-02       2.666764478426e+04 
       1.954152307635e-02       2.663565593019e+04 
       1.967039855913e-02       2.660177644629e+04 
       1.979934098457e-02       2.656638099807e+04 
       1.992835159544e-02       2.653038195756e+04 
       2.005743166578e-02       2.649315949186e+04 
       2.018658250158e-02       2.645465558556e+04 
       2.031580544140e-02       2.641580522564e+04 
       2.044510185708e-02       2.637446225937e+04 
       2.057447315441e-02       2.633291615160e+04 
       2.070392077385e-02       2.629014988027e+04 
       2.083344619133e-02       2.624642112829e+04 
       2.096305091892e-02       2.620121221649e+04 
       2.109273650575e-02       2.615522091808e+04 
       2.122250453870e-02       2.610820480187e+04 
       2.135235664334e-02       2.606087496750e+04 
       2.148229448477e-02       2.601117256794e+04 
       2.161231976851e-02       2.596122691878e+04 
       2.174243424143e-02       2.591060956014e+04 
       2.187263969274e-02       2.585842594201e+04 
       2.200293795492e-02       2.580630415337e+04 
       2.213333090478e-02       2.575203885981e+04 
       2.226382046450e-02       2.569749821187e+04 
       2.239440860272e-02       2.564246953323e+04 
       2.252509733563e-02       2.558671489679e+04 
       2.265588872814e-02       2.552884561931e+04 
       2.278678489509e-02       2.547160520947e+04 
       2.291778800242e-02       2.541236272748e+04 
       2.304890026850e-02       2.535367287550e+04 
       2.318012396537e-02       2.529277614058e+04 
       2.331146142014e-02       2.523261179541e+04 
       2.344291501635e-02       2.517020986208e+04 
       2.357448719540e-02       2.510784712534e+04 
       2.370618045804e-02       2.504479089696e+04 
       2.383799736590e-02       2.498107976509e+04 
       2.396994054304e-02       2.491677537422e+04 
       2.410201267761e-02       2.485215230534e+04 
       2.423421652351e-02       2.478598186611e+04 
       2.436655490213e-02       2.471967786113e+04 
       2.449903070413e-02       2.465280563829e+04 
       2.463164689130e-02       2.458523804178e+04 
       2.476440649850e-02       2.451718117271e+04 
       2.489731263556e-02       2.444855544681e+04 
       2.503036848940e-02       2.437937171116e+04 
       2.516357732611e-02       2.430964049559e+04 
       2.529694249311e-02       2.423972263556e+04 
       2.543046742143e-02       2.416864520755e+04 
       2.556415562807e-02       2.409740668482e+04 
       2.569801071834e-02       2.402566081312e+04 
       2.583203638843e-02       2.395347333298e+04 
       2.596623642796e-02       2.388086342772e+04 
       2.610061472266e-02       2.380768900439e+04 
       2.623517525713e-02       2.373422290162e+04 
       2.636992211774e-02       2.366034476105e+04 
       2.650485949557e-02       2.358597906415e+04 
       2.663999168948e-02       2.351122260885e+04 
       2.677532310935e-02       2.343651268938e+04 
       2.691085827932e-02       2.336097653058e+04 
       2.704660184128e-02       2.328476107659e+04 
       2.718255855838e-02       2.320864532289e+04 
       2.731873331873e-02       2.313210916785e+04 
       2.745513113922e-02       2.305527920716e+04 
       2.759175716952e-02       2.297822211735e+04 
       2.772861669615e-02       2.290097209489e+04 
       2.786571514680e-02       2.282321640523e+04 
       2.800305809477e-02       2.274509016646e+04 
       2.814065126356e-02       2.266692717669e+04 
       2.827850053172e-02       2.258828429935e+04 
       2.841661193776e-02       2.250966517483e+04 
       2.855499168544e-02       2.243059625409e+04 
       2.869364614908e-02       2.235121742730e+04 
       2.883258187923e-02       2.227172929129e+04 
       2.897180560847e-02       2.219207519185e+04 
       2.911132425755e-02       2.211215651097e+04 
       2.925114494169e-02       2.203210204390e+04 
       2.939127497719e-02       2.195179717887e+04 
       2.953172188832e-02       2.187125506821e+04 
       2.967249341450e-02       2.179076114641e+04 
       2.981359751776e-02       2.170999474459e+04 
       2.995504239059e-02       2.162899441977e+04 
       3.009683646406e-02       2.154788503615e+04 
       3.023898841634e-02       2.146667253538e+04 
       3.038150718158e-02       2.138537655432e+04 
       3.052440195921e-02       2.130397582222e+04 
       3.066768222362e-02       2.122245071594e+04 
       3.081135773435e-02       2.114093018327e+04 
       3.095543854669e-02       2.105905565043e+04 
       3.109993502279e-02       2.097722563783e+04 
       3.124485784329e-02       2.089538419449e+04 
       3.139021801953e-02       2.081342300632e+04 
       3.153602690629e-02       2.073139085664e+04 
       3.168229621523e-02       2.064921114985e+04 
       3.182903802885e-02       2.056702669341e+04 
       3.197626481530e-02       2.048475181595e+04 
       3.212398944383e-02       2.040254362843e+04 
       3.227222520100e-02       2.032028902053e+04 
       3.242098580778e-02       2.023785629980e+04 
       3.257028543748e-02       2.015563044615e+04 
       3.272013873466e-02       2.007316089011e+04 
       3.287056083495e-02       1.999099980842e+04 
       3.302156738596e-02       1.990837572057e+04 
       3.317317456938e-02       1.982584856874e+04 
       3.332539912412e-02       1.974353096684e+04 
       3.347825837086e-02       1.966122428526e+04 
       3.363177023784e-02       1.957862898573e+04 
       3.378595328823e-02       1.949615825011e+04 
       3.394082674885e-02       1.941380918126e+04 
       3.409641054072e-02       1.933133586277e+04 
       3.425272531126e-02       1.924894132468e+04 
       3.440979246840e-02       1.916660203778e+04 
       3.456763421671e-02       1.908436868315e+04 
       3.472627359569e-02       1.900198575750e+04 
       3.488573452033e-02       1.891980430682e+04 
       3.504604182423e-02       1.883764140420e+04 
       3.520722130534e-02       1.875512697648e+04 
       3.536929977455e-02       1.867302370037e+04 
       3.553230510739e-02       1.859079479566e+04 
       3.569626629907e-02       1.850863159651e+04 
       3.586121352304e-02       1.842666644163e+04 
       3.602717819344e-02       1.834464953721e+04 
       3.619419303176e-02       1.826256418679e+04 
       3.636229213791e-02       1.818059295287e+04 
       3.653151106621e-02       1.809860295676e+04 
       3.670188690668e-02       1.801674114654e+04 
       3.687345837198e-02       1.793489185583e+04 
       3.704626589063e-02       1.785309332763e+04 
       3.722035170685e-02       1.777143734570e+04 
       3.739575998785e-02       1.768957484950e+04 
       3.757253693902e-02       1.760790694687e+04 
       3.775073092779e-02       1.752641081871e+04 
       3.793039261706e-02       1.744466101535e+04 
       3.811157510886e-02       1.736306811942e+04 
       3.829433409945e-02       1.728161262615e+04 
       3.847872804676e-02       1.720001645197e+04 
       3.866481835150e-02       1.711853584743e+04 
       3.885266955312e-02       1.703713967477e+04 
       3.904234954228e-02       1.695558448777e+04 
       3.923392979140e-02       1.687418973345e+04 
       3.942748560519e-02       1.679275107363e+04 
       3.962309639317e-02       1.671136766582e+04 
       3.982084596665e-02       1.662990822692e+04 
       4.002082286273e-02       1.654872332761e+04 
       4.022312069830e-02       1.646703718510e+04 
       4.042783855743e-02       1.638582552840e+04 
       4.063508141591e-02       1.630432596737e+04 
       4.084496060727e-02       1.622271819974e+04 
       4.105759433523e-02       1.614111755148e+04 
       4.127310823805e-02       1.605956166968e+04 
       4.149163601122e-02       1.597811160666e+04 
       4.171332009580e-02       1.589614655137e+04 
       4.193831244066e-02       1.581440940233e+04 
       4.216677534828e-02       1.573256443683e+04 
       4.239888241525e-02       1.565057915351e+04 
       4.263481958009e-02       1.556855133466e+04 
       4.287478629332e-02       1.548633330775e+04 
       4.311899682700e-02       1.540398576895e+04 
       4.336768174376e-02       1.532156315477e+04 
       4.362108954874e-02       1.523896700274e+04 
       4.387948855201e-02       1.515614342659e+04 
       4.414316897381e-02       1.507310703257e+04 
       4.441244533075e-02       1.498991672513e+04 
       4.468765914812e-02       1.490628754285e+04 
       4.496918205220e-02       1.482273269211e+04 
       4.525741930661e-02       1.473852889252e+04 
       4.555281386928e-02       1.465447775067e+04 
       4.585585106264e-02       1.456962407048e+04 
       4.616706396803e-02       1.448425163307e+04 
       4.648703967949e-02       1.439870591320e+04 
       4.681642658099e-02       1.431264692739e+04 
       4.715594284790e-02       1.422614821668e+04 
       4.750638641878e-02       1.413935213427e+04 
       4.786864674137e-02       1.405135837126e+04 
       4.824371866853e-02       1.396326965677e+04 
       4.863271897149e-02       1.387442499974e+04 
       4.903690605431e-02       1.378435442436e+04 
       4.945770360062e-02       1.369389458882e+04 
       4.989672907282e-02       1.360214709775e+04 
       5.035582822378e-02       1.350931605410e+04 
       5.083711708661e-02       1.341534407469e+04 
       5.134303329469e-02       1.331996749304e+04 
       5.187639906779e-02       1.322299686732e+04 
       5.244049879457e-02       1.312432375002e+04 
       5.303917484706e-02       1.302357751628e+04 
       5.367694605009e-02       1.292001808132e+04 
       5.435915399485e-02       1.281443282460e+04 
       5.509214288251e-02       1.270536134369e+04 
       5.588347825914e-02       1.259227569606e+04 
       5.674220772747e-02       1.247485251071e+04 
       5.767916028925e-02       1.235058051995e+04 
       5.870726632500e-02       1.221953807215e+04 
       5.984185044451e-02       1.207839435692e+04 
