# dimensionless [l(l+1)/2pi] C_l's for scalar mode
# for l=2 to 3000, i.e. number of multipoles equal to 2999
#
# -> if you prefer output in CAMB/HealPix/LensPix units/order, set 'format' to 'camb' in input file
# -> if you don't want to see such a header, set 'headers' to 'no' in input file
# -> for CMB lensing (phi), these are C_l^phi-phi for the lensing potential.
#    Remember the conversion factors:
#    C_l^dd (deflection) = l(l+1) C_l^phi-phi
#    C_l^gg (shear/convergence) = 1/4 (l(l+1))^2 C_l^phi-phi
#
# 1:l     2:TT                     3:EE                     4:TE                     5:BB                     6:phiphi                 7:TPhi                   8:Ephi               
    2       1.424153124926e-10       5.999916874617e-15       4.283474013691e-13       0.000000000000e+00       8.377764198216e-09       4.611429660213e-10      -2.239712713836e-12 
    3       1.344152966833e-10       9.349109606281e-15       5.201915298677e-13       0.000000000000e+00       5.193055846426e-09       3.283861907608e-10      -1.885335102364e-12 
    4       1.266027963738e-10       1.002496993578e-14       5.218828064062e-13       0.000000000000e+00       3.613912681701e-09       2.494300123762e-10      -1.427755668938e-12 
    5       1.205178185165e-10       8.474940067452e-15       4.753462055427e-13       0.000000000000e+00       2.696360524011e-09       1.974963390412e-10      -9.917788296477e-13 
    6       1.161195637354e-10       5.962599732869e-15       4.075501123520e-13       0.000000000000e+00       2.104554808568e-09       1.609869573081e-10      -6.185364362579e-13 
    7       1.131095635243e-10       3.637184705645e-15       3.361471343838e-13       0.000000000000e+00       1.697182026158e-09       1.341298868694e-10      -3.250029553583e-13 
    8       1.111449394292e-10       2.067095011681e-15       2.712238641671e-13       0.000000000000e+00       1.402904987634e-09       1.136739887304e-10      -1.139741254852e-13 
    9       1.100000842107e-10       1.267859554680e-15       2.180084951052e-13       0.000000000000e+00       1.181915496587e-09       9.767812126644e-11       2.076530130366e-14 
   10       1.094998807893e-10       9.663407003351e-16       1.784798277917e-13       0.000000000000e+00       1.010820459292e-09       8.492626375936e-11       9.135466288992e-14 
   11       1.094829204342e-10       8.667837359232e-16       1.525307422504e-13       0.000000000000e+00       8.500251271431e-10       7.481677518502e-11       1.127125974179e-13 
   12       1.097890402353e-10       7.930500532263e-16       1.386583823897e-13       0.000000000000e+00       7.426398282872e-10       6.629791464258e-11       1.020500392619e-13 
   13       1.104408694622e-10       6.995112863003e-16       1.343743459385e-13       0.000000000000e+00       6.544950295097e-10       5.897276650100e-11       7.276946745171e-14 
   14       1.113094855513e-10       6.112011520783e-16       1.368224354783e-13       0.000000000000e+00       5.811638368518e-10       5.296347303965e-11       3.739041029742e-14 
   15       1.123439574030e-10       5.605041326810e-16       1.434140123876e-13       0.000000000000e+00       5.194526765591e-10       4.792994049851e-11       4.302236984648e-15 
   16       1.135665900430e-10       5.563839402808e-16       1.519783626197e-13       0.000000000000e+00       4.669900460501e-10       4.346256047680e-11      -2.159815130062e-14 
   17       1.148953459380e-10       5.864651920128e-16       1.609245582121e-13       0.000000000000e+00       4.219878687312e-10       3.956725162650e-11      -3.788175866841e-14 
   18       1.163236079758e-10       6.322570428127e-16       1.693843149716e-13       0.000000000000e+00       3.829305191165e-10       3.617082380982e-11      -4.474229979876e-14 
   19       1.178702618213e-10       6.883701666827e-16       1.770882819175e-13       0.000000000000e+00       3.492006515378e-10       3.322537218101e-11      -4.375170188856e-14 
   20       1.194955154986e-10       7.542553395437e-16       1.839517866680e-13       0.000000000000e+00       3.194955687498e-10       3.062768865217e-11      -3.764762090587e-14 
   21       1.211981504014e-10       8.375065898735e-16       1.902611385821e-13       0.000000000000e+00       2.933481979705e-10       2.831665353310e-11      -2.883627227429e-14 
   22       1.229581347055e-10       9.481357127064e-16       1.964635003849e-13       0.000000000000e+00       2.701330195533e-10       2.621337226979e-11      -1.992229276491e-14 
   23       1.247744099384e-10       1.088480989506e-15       2.028320310328e-13       0.000000000000e+00       2.495302188173e-10       2.432241690918e-11      -1.240493641864e-14 
   24       1.266317064715e-10       1.257484352822e-15       2.095631579884e-13       0.000000000000e+00       2.310625715157e-10       2.264906426484e-11      -7.366832372581e-15 
   25       1.285332930991e-10       1.453043922974e-15       2.166819878402e-13       0.000000000000e+00       2.145124374440e-10       2.116528945315e-11      -4.972117034003e-15 
   26       1.304735886426e-10       1.672372850298e-15       2.240906478139e-13       0.000000000000e+00       1.995801079331e-10       1.981726826442e-11      -4.914011964824e-15 
   27       1.324535419760e-10       1.914902956082e-15       2.315019881459e-13       0.000000000000e+00       1.860869483475e-10       1.858055586771e-11      -6.539286730711e-15 
   28       1.344668054136e-10       2.180566821352e-15       2.385337203934e-13       0.000000000000e+00       1.738009216572e-10       1.743321866002e-11      -8.988650442562e-15 
   29       1.365203033131e-10       2.469477095465e-15       2.449151128543e-13       0.000000000000e+00       1.626590029015e-10       1.637791917550e-11      -1.168183426163e-14 
   30       1.386129880126e-10       2.781618865868e-15       2.503663637547e-13       0.000000000000e+00       1.525408519330e-10       1.541730987619e-11      -1.401004119266e-14 
   31       1.407333690041e-10       3.117014938919e-15       2.545969825973e-13       0.000000000000e+00       1.432393620400e-10       1.454529604982e-11      -1.536292215369e-14 
   32       1.428843442626e-10       3.476779715630e-15       2.574817914109e-13       0.000000000000e+00       1.347065786449e-10       1.375366468201e-11      -1.568651372862e-14 
   33       1.450650462438e-10       3.862471976977e-15       2.589504403943e-13       0.000000000000e+00       1.268825347342e-10       1.302612073272e-11      -1.513835122116e-14 
   34       1.472683640772e-10       4.275770560516e-15       2.589634589981e-13       0.000000000000e+00       1.196580926692e-10       1.234227470107e-11      -1.394329899981e-14 
   35       1.494994017934e-10       4.718243617450e-15       2.575835123056e-13       0.000000000000e+00       1.129962127287e-10       1.170100313464e-11      -1.237155447599e-14 
   36       1.517618449760e-10       5.191514242618e-15       2.549332820296e-13       0.000000000000e+00       1.068432216749e-10       1.110438885840e-11      -1.076262078324e-14 
   37       1.540543500369e-10       5.697123777815e-15       2.511395576545e-13       0.000000000000e+00       1.011188054793e-10       1.055183984332e-11      -9.456704221363e-15 
   38       1.563776602422e-10       6.235828353402e-15       2.461955518140e-13       0.000000000000e+00       9.580815372313e-11       1.004219650339e-11      -8.520484992189e-15 
   39       1.587286439833e-10       6.808063402406e-15       2.400543587357e-13       0.000000000000e+00       9.089446148806e-11       9.571798050277e-12      -7.932560101395e-15 
   40       1.610975670124e-10       7.414119349735e-15       2.326652539146e-13       0.000000000000e+00       8.633090882878e-11       9.133548122034e-12      -7.655215121610e-15 
   41       1.634732550549e-10       8.054246252666e-15       2.239699732526e-13       0.000000000000e+00       8.205697300645e-11       8.719227877731e-12      -7.632679490785e-15 
   42       1.658621470859e-10       8.729032421666e-15       2.138911626850e-13       0.000000000000e+00       7.806004615598e-11       8.328035857272e-12      -7.788324937308e-15 
   43       1.682743633415e-10       9.439132437771e-15       2.023394200451e-13       0.000000000000e+00       7.432946905836e-11       7.960341542991e-12      -8.024373593955e-15 
   44       1.707181968243e-10       1.018516131548e-14       1.892155890023e-13       0.000000000000e+00       7.083803876216e-11       7.615214918835e-12      -8.220965209103e-15 
   45       1.731991437381e-10       1.096765902432e-14       1.744283622186e-13       0.000000000000e+00       6.755171896000e-11       7.290958557530e-12      -8.266036965877e-15 
   46       1.757172243730e-10       1.178697614101e-14       1.579549362207e-13       0.000000000000e+00       6.446533590961e-11       6.987153221664e-12      -8.158727662308e-15 
   47       1.782684460393e-10       1.264335059327e-14       1.397973568039e-13       0.000000000000e+00       6.157531430062e-11       6.703036390648e-12      -7.934640627934e-15 
   48       1.808451805268e-10       1.353693432578e-14       1.199661999809e-13       0.000000000000e+00       5.886891255653e-11       6.436841788307e-12      -7.637790689150e-15 
   49       1.834358782208e-10       1.446778936301e-14       9.848095798349e-14       0.000000000000e+00       5.632354112497e-11       6.185726188641e-12      -7.321080275470e-15 
   50       1.860293860693e-10       1.543594716138e-14       7.536315956601e-14       0.000000000000e+00       5.391356693688e-11       5.946622036748e-12      -7.036254814065e-15 
   51       1.886299464889e-10       1.644161479277e-14       5.061263388642e-14       0.000000000000e+00       5.163448577763e-11       5.719237960941e-12      -6.799450073109e-15 
   52       1.912457755735e-10       1.748501792151e-14       2.422547095268e-14       0.000000000000e+00       4.948413285566e-11       5.503746194996e-12      -6.617116013099e-15 
   53       1.938847474838e-10       1.856634147051e-14      -3.799232751159e-15       0.000000000000e+00       4.745544849313e-11       5.299899023338e-12      -6.495701610192e-15 
   54       1.965543252153e-10       1.968572866231e-14      -3.345933017789e-14       0.000000000000e+00       4.553614870641e-11       5.106999154575e-12      -6.441635870150e-15 
   55       1.992605595393e-10       2.084325259587e-14      -6.475411088786e-14       0.000000000000e+00       4.371247084373e-11       4.924139301033e-12      -6.458706232176e-15 
   56       2.020049532171e-10       2.203882490468e-14      -9.769916891937e-14       0.000000000000e+00       4.198225480810e-11       4.751058484792e-12      -6.539474629579e-15 
   57       2.047866965229e-10       2.327226272782e-14      -1.323151511945e-13       0.000000000000e+00       4.034453448692e-11       4.587446563364e-12      -6.671695738727e-15 
   58       2.076034275773e-10       2.454331220163e-14      -1.686236794358e-13       0.000000000000e+00       3.879558047329e-11       4.432674939959e-12      -6.840614991992e-15 
   59       2.104511268098e-10       2.585164643082e-14      -2.066474826212e-13       0.000000000000e+00       3.732872941500e-11       4.285777425556e-12      -7.028848191300e-15 
   60       2.133240114207e-10       2.719686345956e-14      -2.464105294403e-13       0.000000000000e+00       3.593421336352e-11       4.145431100988e-12      -7.216261121678e-15 
   61       2.162164728562e-10       2.857851429306e-14      -2.879328174747e-13       0.000000000000e+00       3.460187185328e-11       4.010316818163e-12      -7.384741504308e-15 
   62       2.191296361803e-10       2.999619890202e-14      -3.312130743155e-13       0.000000000000e+00       3.333038556724e-11       3.880338557092e-12      -7.534038865160e-15 
   63       2.220660924459e-10       3.144948826520e-14      -3.762423909001e-13       0.000000000000e+00       3.211982187576e-11       3.755645051643e-12      -7.669282647682e-15 
   64       2.250279456947e-10       3.293789516637e-14      -4.230091858012e-13       0.000000000000e+00       3.096885738037e-11       3.636267350218e-12      -7.796437764721e-15 
   65       2.280167722431e-10       3.446087311888e-14      -4.714991681452e-13       0.000000000000e+00       2.987469872964e-11       3.522111723494e-12      -7.922339442300e-15 
   66       2.310335799673e-10       3.601781529032e-14      -5.216953005289e-13       0.000000000000e+00       2.883300343496e-11       3.412952572164e-12      -8.054728063405e-15 
   67       2.340787675889e-10       3.760805342702e-14      -5.735777619371e-13       0.000000000000e+00       2.783780068650e-11       3.308425334675e-12      -8.202284011766e-15 
   68       2.371525040151e-10       3.923084459552e-14      -6.271243164342e-13       0.000000000000e+00       2.688308570718e-11       3.208141048560e-12      -8.372063241162e-15 
   69       2.402560466234e-10       4.088533069093e-14      -6.823115888804e-13       0.000000000000e+00       2.596815495695e-11       3.112072843339e-12      -8.561122701788e-15 
   70       2.433906181824e-10       4.257056875430e-14      -7.391139822796e-13       0.000000000000e+00       2.509321469858e-11       3.020235380236e-12      -8.763252803046e-15 
   71       2.465569809971e-10       4.428554106767e-14      -7.975032686513e-13       0.000000000000e+00       2.425776738014e-11       2.932566218198e-12      -8.971395479579e-15 
   72       2.497554069382e-10       4.602915376706e-14      -8.574485623257e-13       0.000000000000e+00       2.346057525238e-11       2.848921832984e-12      -9.177612557440e-15 
   73       2.529856474698e-10       4.780023545553e-14      -9.189162932386e-13       0.000000000000e+00       2.269962398599e-11       2.769073636242e-12      -9.373054120270e-15 
   74       2.562469036789e-10       4.959753581609e-14      -9.818701802270e-13       0.000000000000e+00       2.197208628901e-11       2.692703994602e-12      -9.547926875471e-15 
   75       2.595377963033e-10       5.141972422477e-14      -1.046271204324e-12       0.000000000000e+00       2.127428552412e-11       2.619402248760e-12      -9.691462520380e-15 
   76       2.628569817648e-10       5.326542910413e-14      -1.112080049428e-12       0.000000000000e+00       2.060260819249e-11       2.548764674178e-12      -9.794221436163e-15 
   77       2.662051962127e-10       5.513336733488e-14      -1.179264997161e-12       0.000000000000e+00       1.995651391188e-11       2.480724207468e-12      -9.855558685083e-15 
   78       2.695835315011e-10       5.702223603285e-14      -1.247795429851e-12       0.000000000000e+00       1.933601077273e-11       2.415273894044e-12      -9.877468326921e-15 
   79       2.729928057981e-10       5.893067335930e-14      -1.317639514374e-12       0.000000000000e+00       1.874073851376e-11       2.352366461028e-12      -9.862384862811e-15 
   80       2.764335468607e-10       6.085725796936e-14      -1.388764226051e-12       0.000000000000e+00       1.816995159659e-11       2.291912467751e-12      -9.813199489206e-15 
   81       2.799059753105e-10       6.280050846038e-14      -1.461135372534e-12       0.000000000000e+00       1.762250228040e-11       2.233778456242e-12      -9.733276351831e-15 
   82       2.834099879093e-10       6.475888282042e-14      -1.534717617701e-12       0.000000000000e+00       1.709682369647e-11       2.177785101717e-12      -9.626468799651e-15 
   83       2.869451408341e-10       6.673077787662e-14      -1.609474505544e-12       0.000000000000e+00       1.659091292285e-11       2.123705363077e-12      -9.497135638826e-15 
   84       2.905109315542e-10       6.871456252047e-14      -1.685366701739e-12       0.000000000000e+00       1.610281773458e-11       2.071321799037e-12      -9.349739856266e-15 
   85       2.941077347868e-10       7.070868492042e-14      -1.762346331081e-12       0.000000000000e+00       1.563222664337e-11       2.020613485168e-12      -9.187532752755e-15 
   86       2.977359917603e-10       7.271158215421e-14      -1.840361740757e-12       0.000000000000e+00       1.517911264653e-11       1.971596836836e-12      -9.013680453551e-15 
   87       3.013959138758e-10       7.472164802810e-14      -1.919359193223e-12       0.000000000000e+00       1.474324465242e-11       1.924268356127e-12      -8.831671143898e-15 
   88       3.050874710004e-10       7.673723309300e-14      -1.999282860142e-12       0.000000000000e+00       1.432417902020e-11       1.878603776721e-12      -8.645324305674e-15 
   89       3.088103797614e-10       7.875664466055e-14      -2.080074816320e-12       0.000000000000e+00       1.392125109958e-11       1.834557208760e-12      -8.458799954030e-15 
   90       3.125640918403e-10       8.077814681923e-14      -2.161675033641e-12       0.000000000000e+00       1.353356677056e-11       1.792060283728e-12      -8.276607874034e-15 
   91       3.163477822665e-10       8.279996045042e-14      -2.244021375004e-12       0.000000000000e+00       1.315999398319e-11       1.751021299320e-12      -8.103616857314e-15 
   92       3.201603377114e-10       8.482026324451e-14      -2.327049588257e-12       0.000000000000e+00       1.279915429731e-11       1.711324364313e-12      -7.945063938702e-15 
   93       3.240006999036e-10       8.683721566240e-14      -2.410695001691e-12       0.000000000000e+00       1.244974988506e-11       1.672857691973e-12      -7.805361640031e-15 
   94       3.278689803833e-10       8.884904325156e-14      -2.494897915377e-12       0.000000000000e+00       1.211161917271e-11       1.635605205314e-12      -7.684294433781e-15 
   95       3.317654925439e-10       9.085396679763e-14      -2.579599013251e-12       0.000000000000e+00       1.178482506406e-11       1.599567192336e-12      -7.580264643133e-15 
   96       3.356904047095e-10       9.285017784947e-14      -2.664737750861e-12       0.000000000000e+00       1.146932982052e-11       1.564731936182e-12      -7.491436298258e-15 
   97       3.396437333035e-10       9.483583909128e-14      -2.750252372662e-12       0.000000000000e+00       1.116499120573e-11       1.531075260127e-12      -7.415727873397e-15 
   98       3.436253360171e-10       9.680908471496e-14      -2.836079929312e-12       0.000000000000e+00       1.087155863013e-11       1.498560072566e-12      -7.350805023952e-15 
   99       3.476349049782e-10       9.876802079226e-14      -2.922156294960e-12       0.000000000000e+00       1.058866929561e-11       1.467135912006e-12      -7.294073323561e-15 
  100       3.516719599198e-10       1.007107256471e-13      -3.008416184540e-12       0.000000000000e+00       1.031584434001e-11       1.436738492055e-12      -7.242671001192e-15 
  101       3.557358413486e-10       1.026352502276e-13      -3.094793171065e-12       0.000000000000e+00       1.005248498182e-11       1.407289246413e-12      -7.193461678220e-15 
  102       3.598257037138e-10       1.045396184788e-13      -3.181219702921e-12       0.000000000000e+00       9.797868664683e-12       1.378694873861e-12      -7.143027105514e-15 
  103       3.639405085756e-10       1.064218277142e-13      -3.267627121155e-12       0.000000000000e+00       9.551145202039e-12       1.350846883250e-12      -7.087659900521e-15 
  104       3.680792441613e-10       1.082799019485e-13      -3.353946301417e-12       0.000000000000e+00       9.311529502446e-12       1.323646975144e-12      -7.024186895346e-15 
  105       3.722416325254e-10       1.101120592961e-13      -3.440109641291e-12       0.000000000000e+00       9.078917699596e-12       1.297088071639e-12      -6.952581493127e-15 
  106       3.764275056255e-10       1.119165679846e-13      -3.526049374911e-12       0.000000000000e+00       8.853347452367e-12       1.271183435179e-12      -6.873692305591e-15 
  107       3.806365831744e-10       1.136916963575e-13      -3.611696996152e-12       0.000000000000e+00       8.634807121683e-12       1.245941640335e-12      -6.788445896928e-15 
