# Matter power spectrum P(k) at redshift z=0
# for k=6.7643e-06 to 120.043 h/Mpc,
# number of wavenumbers equal to 591
#    1:k (h/Mpc)              2:P (Mpc/h)^3        
       6.764295980274e-06       1.820840258742e+02 
       1.709075317718e-05       4.461771451707e+02 
       2.743779540785e-05       7.051390659650e+02 
       3.782329503451e-05       9.616811801000e+02 
       4.826529922082e-05       1.217144891165e+03 
       5.878213348955e-05       1.472445548832e+03 
       6.939250730355e-05       1.728310913339e+03 
       8.011562260104e-05       1.985372703402e+03 
       9.097128622266e-05       2.244209843740e+03 
       1.019800271779e-04       2.505372582738e+03 
       1.131632197092e-04       2.769397203973e+03 
       1.245432131205e-04       3.036816136065e+03 
       1.361434693422e-04       3.308165075185e+03 
       1.479887091958e-04       3.583988976743e+03 
       1.601050683010e-04       3.864846686952e+03 
       1.725202635204e-04       4.151315128535e+03 
       1.852637707564e-04       4.443993046989e+03 
       1.983670147865e-04       4.743504469873e+03 
       2.118635716329e-04       5.050501895781e+03 
       2.257893836875e-04       5.365669391683e+03 
       2.401829874294e-04       5.689725389335e+03 
       2.550857530531e-04       6.023425320496e+03 
       2.705421346286e-04       6.367563951404e+03 
       2.865999285056e-04       6.722977333622e+03 
       3.033105365038e-04       7.090544239476e+03 
       3.207292289494e-04       7.471187088597e+03 
       3.389154007800e-04       7.865871773259e+03 
       3.579328117026e-04       8.275606685108e+03 
       3.778497987199e-04       8.701440213738e+03 
       3.987394462609e-04       9.144456479022e+03 
       4.206796956873e-04       9.605769177779e+03 
       4.437533722500e-04       1.008651263999e+04 
       4.680481038479e-04       1.058782999883e+04 
       4.936561025600e-04       1.111085775479e+04 
       5.206737774064e-04       1.165670627332e+04 
       5.492011458310e-04       1.222643601573e+04 
       5.793410128559e-04       1.282102871128e+04 
       6.111978917008e-04       1.344135425736e+04 
       6.448766488341e-04       1.408813284893e+04 
       6.804808706680e-04       1.476189380968e+04 
       7.181109686874e-04       1.546293258247e+04 
       7.578620641476e-04       1.619126781436e+04 
       7.998217209871e-04       1.694660122320e+04 
       8.440676234127e-04       1.772828397901e+04 
       8.906653187883e-04       1.853529193737e+04 
       9.396661624373e-04       1.936621298880e+04 
       9.911056044247e-04       2.021924864614e+04 
       1.045001946355e-03       2.109219544301e+04 
       1.101355668051e-03       2.198257421880e+04 
       1.160149382043e-03       2.288758178599e+04 
       1.221348423251e-03       2.380417490506e+04 
       1.284902029274e-03       2.472913952930e+04 
       1.350745020698e-03       2.565916307631e+04 
       1.418799857254e-03       2.659091324125e+04 
       1.488978927908e-03       2.752110720161e+04 
       1.561186931921e-03       2.844657530185e+04 
       1.635323221087e-03       2.936431558937e+04 
       1.711283996780e-03       3.027153386956e+04 
       1.788964284217e-03       3.116567033468e+04 
       1.868259635843e-03       3.204442994543e+04 
       1.949067542706e-03       3.290577865990e+04 
       2.031288554647e-03       3.374793201240e+04 
       2.114827126462e-03       3.456936769431e+04 
       2.199592217803e-03       3.536880282501e+04 
       2.285497680289e-03       3.614517270674e+04 
       2.372462467085e-03       3.689762794362e+04 
       2.460410699240e-03       3.762550031514e+04 
       2.549271620267e-03       3.832830761487e+04 
       2.638979466671e-03       3.900571880646e+04 
       2.729473277984e-03       3.965755588981e+04 
       2.820696665707e-03       4.028375710429e+04 
       2.912597556778e-03       4.088439514245e+04 
       3.005127923750e-03       4.145960807139e+04 
       3.098243510993e-03       4.200886649208e+04 
       3.191903563800e-03       4.253333295534e+04 
       3.286070565330e-03       4.303370983571e+04 
       3.380709984762e-03       4.351018348775e+04 
       3.475790038829e-03       4.396327951935e+04 
       3.571281467943e-03       4.439304811730e+04 
       3.667157327492e-03       4.479991794295e+04 
       3.763392794314e-03       4.518468771920e+04 
       3.859964988042e-03       4.554799296962e+04 
       3.956852806755e-03       4.588992029919e+04 
       4.054036776201e-03       4.621075144328e+04 
       4.151498911784e-03       4.651158706557e+04 
       4.249222592441e-03       4.679332467627e+04 
       4.347192445537e-03       4.705530487362e+04 
       4.445394241925e-03       4.729868254064e+04 
       4.543814800320e-03       4.752431553331e+04 
       4.642441900220e-03       4.773249886702e+04 
       4.741264202607e-03       4.792366155963e+04 
       4.840271177755e-03       4.809981677775e+04 
       4.939453039492e-03       4.825829278115e+04 
       5.038800685334e-03       4.840112720704e+04 
       5.138305641939e-03       4.852890491473e+04 
       5.237960015401e-03       4.864192562313e+04 
       5.337756445923e-03       4.874074513819e+04 
       5.437688066468e-03       4.882565258197e+04 
       5.537748465011e-03       4.889703226241e+04 
       5.637931650059e-03       4.895553061442e+04 
       5.738232019141e-03       4.900134208984e+04 
       5.838644329978e-03       4.903499622504e+04 
       5.939163674101e-03       4.905674776856e+04 
       6.039785452683e-03       4.906689130135e+04 
       6.140505354380e-03       4.906605171828e+04 
       6.241319335013e-03       4.905390534683e+04 
       6.342223598902e-03       4.903158828197e+04 
       6.443214581727e-03       4.899916781306e+04 
       6.544288934756e-03       4.895636130826e+04 
       6.645443510346e-03       4.890424743986e+04 
       6.746675348575e-03       4.884278424326e+04 
       6.847981664937e-03       4.877217252500e+04 
       6.949359838980e-03       4.869308071895e+04 
       7.050807403826e-03       4.860502235747e+04 
       7.152322036487e-03       4.850892635185e+04 
       7.253901548920e-03       4.840474073941e+04 
       7.355543879740e-03       4.829285611335e+04 
       7.457247086567e-03       4.817343347645e+04 
       7.559009338919e-03       4.804691700233e+04 
       7.660828911635e-03       4.791281231668e+04 
       7.762704178777e-03       4.777204227468e+04 
       7.864633607956e-03       4.762458234873e+04 
       7.966615755085e-03       4.747090453485e+04 
       8.068649259479e-03       4.731050751249e+04 
       8.170732839319e-03       4.714417647233e+04 
       8.272865287422e-03       4.697208616774e+04 
       8.375045467307e-03       4.679403963757e+04 
       8.477272309527e-03       4.661048546919e+04 
       8.579544808263e-03       4.642171715689e+04 
       8.681862018133e-03       4.622768180431e+04 
       8.784223051234e-03       4.602862761017e+04 
       8.886627074364e-03       4.582457829846e+04 
       8.989073306450e-03       4.561592416275e+04 
       9.091561016126e-03       4.540264217471e+04 
       9.194089519488e-03       4.518507031830e+04 
       9.296658177989e-03       4.496289632850e+04 
       9.399266396471e-03       4.473690675170e+04 
       9.501913621334e-03       4.450650280250e+04 
       9.604599338815e-03       4.427249986226e+04 
       9.707323073389e-03       4.403481578607e+04 
       9.810084386262e-03       4.379307716126e+04 
       9.912882873979e-03       4.354831254548e+04 
       1.001571816711e-02       4.330001223276e+04 
       1.011858992902e-02       4.304599155840e+04 
       1.022149785473e-02       4.279350617403e+04 
       1.032444166986e-02       4.253575650949e+04 
       1.042742112962e-02       4.227475919691e+04 
       1.053043601787e-02       4.201132834554e+04 
       1.063348614628e-02       4.174525018990e+04 
       1.073657135348e-02       4.147449311021e+04 
       1.083969150434e-02       4.120507909332e+04 
       1.094284648926e-02       4.093132103218e+04 
       1.104603622353e-02       4.065531750306e+04 
       1.114926064667e-02       4.037711789378e+04 
       1.125251972194e-02       4.009658788757e+04 
       1.135581343578e-02       3.981434444103e+04 
       1.145914179735e-02       3.953016673833e+04 
       1.156250483806e-02       3.924412189300e+04 
       1.166590261118e-02       3.895440082430e+04 
       1.176933519149e-02       3.866701668284e+04 
       1.187280267489e-02       3.837404627151e+04 
       1.197630517815e-02       3.808347785252e+04 
       1.207984283857e-02       3.778956193383e+04 
       1.218341581379e-02       3.749436416858e+04 
       1.228702428149e-02       3.719795305135e+04 
       1.239066843928e-02       3.690044201040e+04 
       1.249434850447e-02       3.659999295708e+04 
       1.259806471392e-02       3.630210157902e+04 
       1.270181732393e-02       3.600002973492e+04 
       1.280560661014e-02       3.570022044718e+04 
       1.290943286744e-02       3.539801721977e+04 
       1.301329640990e-02       3.509354013453e+04 
       1.311719757074e-02       3.479002557044e+04 
       1.322113670230e-02       3.448570601260e+04 
       1.332511417604e-02       3.418130704556e+04 
       1.342913038255e-02       3.387600750793e+04 
       1.353318573159e-02       3.357060498548e+04 
       1.363728065215e-02       3.326645814169e+04 
       1.374141559249e-02       3.296052699331e+04 
       1.384559102025e-02       3.265276361617e+04 
       1.394980742254e-02       3.234662402818e+04 
       1.405406530606e-02       3.204172495396e+04 
       1.415836519724e-02       3.173373585332e+04 
       1.426270764239e-02       3.142776755641e+04 
       1.436709320783e-02       3.112141177981e+04 
       1.447152248015e-02       3.081562929202e+04 
       1.457599606633e-02       3.050973764230e+04 
       1.468051459399e-02       3.020432717740e+04 
       1.478507871162e-02       2.989921657623e+04 
       1.488968908880e-02       2.959511787340e+04 
       1.499434641648e-02       2.929025045906e+04 
       1.509905140726e-02       2.898657902893e+04 
       1.520380479565e-02       2.868308109641e+04 
       1.530860733840e-02       2.838034012695e+04 
       1.541345981482e-02       2.807974052265e+04 
       1.551836302711e-02       2.777836669875e+04 
       1.562331780071e-02       2.747705226567e+04 
       1.572832498468e-02       2.717798379454e+04 
       1.583338545206e-02       2.687890785435e+04 
       1.593850010030e-02       2.658075445391e+04 
       1.604366985167e-02       2.628288782077e+04 
       1.614889565369e-02       2.598649063018e+04 
       1.625417847957e-02       2.569108372293e+04 
       1.635951932870e-02       2.539710154278e+04 
       1.646491922714e-02       2.510377751117e+04 
       1.657037922809e-02       2.481177403790e+04 
       1.667590041245e-02       2.452148257951e+04 
       1.678148388935e-02       2.423209155316e+04 
       1.688713079670e-02       2.394358800185e+04 
       1.699284230179e-02       2.365543029334e+04 
       1.709861960189e-02       2.336962962347e+04 
       1.720446392485e-02       2.308518918577e+04 
       1.731037652975e-02       2.280306045276e+04 
       1.741635870759e-02       2.252051391499e+04 
       1.752241178195e-02       2.223993810105e+04 
       1.762853710971e-02       2.196098274198e+04 
       1.773473608176e-02       2.168377396555e+04 
       1.784101012381e-02       2.140869658983e+04 
       1.794736069710e-02       2.113455354822e+04 
       1.805378929929e-02       2.086092366102e+04 
       1.816029746520e-02       2.058976740696e+04 
       1.826688676776e-02       2.032045900465e+04 
       1.837355881882e-02       2.005268856440e+04 
       1.848031527014e-02       1.978655471465e+04 
       1.858715781427e-02       1.952325107413e+04 
       1.869408818558e-02       1.926003599885e+04 
       1.880110816122e-02       1.899950308289e+04 
       1.890821956222e-02       1.873965465198e+04 
       1.901542425451e-02       1.848231545346e+04 
       1.912272415004e-02       1.822701642272e+04 
       1.923012120798e-02       1.797361443035e+04 
       1.933761743581e-02       1.772163656797e+04 
       1.944521489064e-02       1.747175597801e+04 
       1.955291568039e-02       1.722374841761e+04 
       1.966072196515e-02       1.697773006760e+04 
       1.976863595849e-02       1.673386449441e+04 
       1.987665992886e-02       1.649200272697e+04 
       1.998479620106e-02       1.625190799024e+04 
       2.009304715766e-02       1.601379975536e+04 
       2.020141524059e-02       1.577747145974e+04 
       2.030990295270e-02       1.554359138836e+04 
       2.041851285940e-02       1.531136300202e+04 
       2.052724759038e-02       1.508100912198e+04 
       2.063610984131e-02       1.485256202049e+04 
       2.074510237569e-02       1.462687419198e+04 
       2.085422802674e-02       1.440235166261e+04 
       2.096348969931e-02       1.418085789001e+04 
       2.107289037186e-02       1.396141315812e+04 
       2.118243309862e-02       1.374322317118e+04 
       2.129212101166e-02       1.352812168482e+04 
       2.140195732315e-02       1.331421662540e+04 
       2.151194532768e-02       1.310272028821e+04 
       2.162208840463e-02       1.289350894274e+04 
       2.173239002061e-02       1.268658667283e+04 
       2.184285373211e-02       1.248135189620e+04 
       2.195348318806e-02       1.227905591834e+04 
       2.206428213267e-02       1.207768072265e+04 
       2.217525440824e-02       1.187915872789e+04 
       2.228640395811e-02       1.168258023054e+04 
       2.239773482979e-02       1.148843515457e+04 
       2.250925117810e-02       1.129607344787e+04 
       2.262095726852e-02       1.110650845084e+04 
       2.273285748060e-02       1.091846160710e+04 
       2.284495631154e-02       1.073230861007e+04 
       2.295725837993e-02       1.054879139984e+04 
       2.306976842957e-02       1.036789574038e+04 
       2.318249133350e-02       1.018813409977e+04 
       2.329543209817e-02       1.001082644400e+04 
       2.340859586775e-02       9.835786990619e+03 
       2.352198792869e-02       9.662968441049e+03 
       2.363561371439e-02       9.492648590703e+03 
       2.374947881006e-02       9.324053404320e+03 
       2.386358895788e-02       9.157174726963e+03 
       2.397795006225e-02       8.992765009241e+03 
       2.409256819533e-02       8.830664022428e+03 
       2.420744960282e-02       8.670294065181e+03 
       2.432260070995e-02       8.512308458359e+03 
       2.443802812774e-02       8.356175602520e+03 
       2.455373865961e-02       8.202354911823e+03 
       2.466973930811e-02       8.050385422758e+03 
       2.478603728212e-02       7.901022929606e+03 
       2.490264000431e-02       7.753152771641e+03 
       2.501955511886e-02       7.607397320846e+03 
       2.513679049969e-02       7.464039154324e+03 
       2.525435425891e-02       7.322525928482e+03 
       2.537225475576e-02       7.182987492889e+03 
       2.549050060597e-02       7.045215022175e+03 
       2.560910069146e-02       6.909882757299e+03 
       2.572806417064e-02       6.776480651289e+03 
       2.584740048912e-02       6.644768529561e+03 
       2.596711939096e-02       6.515399494160e+03 
       2.608723093046e-02       6.387824186335e+03 
       2.620774548459e-02       6.262258342419e+03 
       2.632867376597e-02       6.138579973506e+03 
       2.645002683653e-02       6.016814963412e+03 
       2.657181612192e-02       5.896975706656e+03 
       2.669405342657e-02       5.779168934680e+03 
       2.681675094962e-02       5.663092377248e+03 
       2.693992130163e-02       5.549109574257e+03 
       2.706357752225e-02       5.436790498315e+03 
       2.718773309873e-02       5.326521938587e+03 
       2.731240198554e-02       5.217869861590e+03 
       2.743759862504e-02       5.111286514659e+03 
       2.756333796925e-02       5.006377655130e+03 
       2.768963550294e-02       4.903268224435e+03 
       2.781650726791e-02       4.801938197316e+03 
       2.794396988878e-02       4.702330419072e+03 
       2.807204060019e-02       4.604693576281e+03 
       2.820073727566e-02       4.508733005016e+03 
       2.833007845813e-02       4.414361939913e+03 
       2.846008339238e-02       4.321884294674e+03 
       2.859077205932e-02       4.231057322380e+03 
       2.872216521255e-02       4.141993322063e+03 
       2.885428441705e-02       4.054436502114e+03 
       2.898715209042e-02       3.968694558459e+03 
       2.912079154667e-02       3.884650270098e+03 
       2.925522704292e-02       3.802058421856e+03 
       2.939048382910e-02       3.721162883029e+03 
       2.952658820098e-02       3.641904008309e+03 
       2.966356755676e-02       3.564168943191e+03 
       2.980145045748e-02       3.488082233538e+03 
       2.994026669170e-02       3.413667751240e+03 
       3.008004734453e-02       3.340661718888e+03 
       3.022082487176e-02       3.269267937836e+03 
       3.036263317914e-02       3.199302290044e+03 
       3.050550770754e-02       3.131023589959e+03 
       3.064948552439e-02       3.064135501806e+03 
       3.079460542193e-02       2.998725140289e+03 
       3.094090802299e-02       2.934854901635e+03 
       3.108843589492e-02       2.872349742214e+03 
       3.123723367238e-02       2.811377337052e+03 
       3.138734819002e-02       2.751815242842e+03 
       3.153882862578e-02       2.693814232196e+03 
       3.169172665592e-02       2.637021660635e+03 
       3.184609662309e-02       2.581736081143e+03 
       3.200199571848e-02       2.527801575325e+03 
       3.215948417974e-02       2.475309066462e+03 
       3.231862550613e-02       2.424183508967e+03 
       3.247948669288e-02       2.374406566335e+03 
       3.264213848668e-02       2.326012540631e+03 
       3.280665566465e-02       2.278976482466e+03 
       3.297311733951e-02       2.233250835587e+03 
       3.314160729373e-02       2.188912080750e+03 
       3.331221434611e-02       2.145921690927e+03 
       3.348503275463e-02       2.104195998975e+03 
       3.366016265975e-02       2.063896532633e+03 
       3.383771057323e-02       2.024854839699e+03 
       3.401778991801e-02       1.987194987073e+03 
       3.420052162566e-02       1.950837601818e+03 
       3.438603479879e-02       1.915838949337e+03 
       3.457446744688e-02       1.882099208954e+03 
       3.476596730557e-02       1.849801214835e+03 
       3.496069275057e-02       1.818807183664e+03 
       3.515881381958e-02       1.789165346795e+03 
       3.536051335760e-02       1.760916422096e+03 
       3.556598830352e-02       1.734071157056e+03 
       3.577545113913e-02       1.708584801097e+03 
       3.598913152526e-02       1.684622811563e+03 
       3.620727815419e-02       1.662122139189e+03 
       3.643016085277e-02       1.641033760132e+03 
       3.665807297726e-02       1.621485818320e+03 
       3.689133414845e-02       1.603552207183e+03 
       3.713029338556e-02       1.587208191283e+03 
       3.737533270854e-02       1.572486432502e+03 
       3.762687129329e-02       1.559590174743e+03 
       3.788537028150e-02       1.548480224759e+03 
       3.815133836905e-02       1.539248990232e+03 
       3.842533832389e-02       1.531993168131e+03 
       3.870799461856e-02       1.526645989634e+03 
       3.900000240497e-02       1.523752052470e+03 
       3.930213811294e-02       1.523061424245e+03 
       3.961527202184e-02       1.524952322015e+03 
       3.994038324072e-02       1.529511015492e+03 
       4.027857764189e-02       1.536990939100e+03 
       4.063110943241e-02       1.547520478256e+03 
       4.099940722561e-02       1.561417455316e+03 
       4.138510570134e-02       1.579131857145e+03 
       4.179008423078e-02       1.600802664465e+03 
       4.221651420300e-02       1.626974224958e+03 
       4.266691723819e-02       1.658207263686e+03 
       4.314423701304e-02       1.694770581137e+03 
