# Matter power spectrum P(k) at redshift z=0
# for k=1.05281e-05 to 110.562 h/Mpc,
# number of wavenumbers equal to 586
#    1:k (h/Mpc)              2:P (Mpc/h)^3        
       1.052807963578e-05       4.927703058281e+01 
       2.352713877128e-05       1.067958612062e+02 
       3.657270395910e-05       1.632429722917e+02 
       4.970052343139e-05       2.192558775208e+02 
       6.294694706346e-05       2.751943262768e+02 
       7.634925644306e-05       3.313262385035e+02 
       8.994600567360e-05       3.878796842701e+02 
       1.037773775211e-04       4.450641529212e+02 
       1.178855595494e-04       5.030814192228e+02 
       1.323151449221e-04       5.621321010254e+02 
       1.471135625522e-04       6.224202071013e+02 
       1.623315412098e-04       6.841566543756e+02 
       1.780236119899e-04       7.475622684050e+02 
       1.942486531248e-04       8.128705145804e+02 
       2.110704803784e-04       8.803301111785e+02 
       2.285584850483e-04       9.502076073176e+02 
       2.467883197222e-04       1.022789956443e+03 
       2.658426291575e-04       1.098387124203e+03 
       2.858118196580e-04       1.177334654373e+03 
       3.067948547504e-04       1.259996225825e+03 
       3.289000573938e-04       1.346766025557e+03 
       3.522458889436e-04       1.438070880359e+03 
       3.769616622471e-04       1.534371937171e+03 
       4.031881303182e-04       1.636165634330e+03 
       4.310778731430e-04       1.743983709926e+03 
       4.607953840079e-04       1.858391785938e+03 
       4.925167350372e-04       1.979986165175e+03 
       5.264286824636e-04       2.109388266791e+03 
       5.627270604340e-04       2.247236216648e+03 
       6.016143146715e-04       2.394173145923e+03 
       6.432960524117e-04       2.550831808977e+03 
       6.879765412181e-04       2.717815546310e+03 
       7.358531826733e-04       2.895675807470e+03 
       7.871101174963e-04       3.084887186471e+03 
       8.419112759710e-04       3.285821368701e+03 
       9.003933482234e-04       3.498721917121e+03 
       9.626592773655e-04       3.723682366017e+03 
       1.028772934362e-03       3.960630201235e+03 
       1.098755583872e-03       4.209318641264e+03 
       1.172584584722e-03       4.469328008396e+03 
       1.250194508415e-03       4.740076713613e+03 
       1.331480555359e-03       5.020841259153e+03 
       1.416303868000e-03       5.310820038511e+03 
       1.504498142286e-03       5.609086007138e+03 
       1.595876857627e-03       5.914644677992e+03 
       1.690240480427e-03       6.226497894983e+03 
       1.787383118814e-03       6.543651121129e+03 
       1.887098274083e-03       6.865135416654e+03 
       1.989183506405e-03       7.190024509209e+03 
       2.093443979114e-03       7.517446929586e+03 
       2.199694952594e-03       7.846594141115e+03 
       2.307763363477e-03       8.176724039516e+03 
       2.417488653685e-03       8.507163915566e+03 
       2.528723016384e-03       8.837305831251e+03 
       2.641331212050e-03       9.166606815875e+03 
       2.755190085468e-03       9.494583981716e+03 
       2.870187889577e-03       9.820810899393e+03 
       2.986223498027e-03       1.014491108051e+04 
       3.103205567240e-03       1.046655633379e+04 
       3.221051691227e-03       1.078545818515e+04 
       3.339687578590e-03       1.110136842674e+04 
       3.459046270523e-03       1.141407087381e+04 
       3.579067410833e-03       1.172337886261e+04 
       3.699696573416e-03       1.202913236013e+04 
       3.820884648717e-03       1.233119556246e+04 
       3.942587288154e-03       1.262945252681e+04 
       4.064764403838e-03       1.292380674781e+04 
       4.187379719976e-03       1.321417697347e+04 
       4.310400371864e-03       1.350049636178e+04 
       4.433796548217e-03       1.378271174982e+04 
       4.557541172652e-03       1.406078062598e+04 
       4.681609620309e-03       1.433467243205e+04 
       4.805979465866e-03       1.460433566825e+04 
       4.930630259525e-03       1.486980684816e+04 
       5.055543327810e-03       1.513104669249e+04 
       5.180701596388e-03       1.538806131831e+04 
       5.306089432377e-03       1.564088698097e+04 
       5.431692503891e-03       1.588949045425e+04 
       5.557497654851e-03       1.613389291443e+04 
       5.683492793264e-03       1.637409940706e+04 
       5.809666791453e-03       1.661013469191e+04 
       5.936009396828e-03       1.684201751755e+04 
       6.062511152017e-03       1.706977819026e+04 
       6.189163323278e-03       1.729344069656e+04 
       6.315957836252e-03       1.751304017122e+04 
       6.442887218245e-03       1.772859535015e+04 
       6.569944546297e-03       1.794013588589e+04 
       6.697123400411e-03       1.814771544076e+04 
       6.824417821363e-03       1.835133478887e+04 
       6.951822272614e-03       1.855107635600e+04 
       7.079331605863e-03       1.874693391387e+04 
       7.206941029872e-03       1.893894330405e+04 
       7.334646082201e-03       1.912717085578e+04 
       7.462442603569e-03       1.931161029083e+04 
       7.590326714554e-03       1.949233758102e+04 
       7.718294794396e-03       1.966937554243e+04 
       7.846343461705e-03       1.984274557380e+04 
       7.974469556861e-03       2.001253591420e+04 
       8.102670125961e-03       2.017872769927e+04 
       8.230942406143e-03       2.034137928173e+04 
       8.359283812172e-03       2.050049558165e+04 
       8.487691924149e-03       2.065618419589e+04 
       8.616164476255e-03       2.080841799059e+04 
       8.744699346420e-03       2.095729369570e+04 
       8.873294546837e-03       2.110279528659e+04 
       9.001948215243e-03       2.124497299864e+04 
       9.130658606899e-03       2.138388100682e+04 
       9.259424087209e-03       2.151956323716e+04 
       9.388243124907e-03       2.165202376687e+04 
       9.517114285788e-03       2.178129731281e+04 
       9.646036226911e-03       2.190743663629e+04 
       9.775007691250e-03       2.203041965813e+04 
       9.904027502745e-03       2.215038469753e+04 
       1.003309456173e-02       2.226731021331e+04 
       1.016220784070e-02       2.238124223362e+04 
       1.029136638038e-02       2.249221461660e+04 
       1.042056928610e-02       2.260022648820e+04 
       1.054981572441e-02       2.270536842382e+04 
       1.067910492000e-02       2.280769520962e+04 
       1.080843615271e-02       2.290707554154e+04 
       1.093780875492e-02       2.300370487226e+04 
       1.106722210901e-02       2.309756840281e+04 
       1.119667564505e-02       2.318868398916e+04 
       1.132616883861e-02       2.327712465780e+04 
       1.145570120876e-02       2.336288321054e+04 
       1.158527231624e-02       2.344597258051e+04 
       1.171488176167e-02       2.352650168975e+04 
       1.184452918396e-02       2.360445283651e+04 
       1.197421425880e-02       2.367981552426e+04 
       1.210393669726e-02       2.375265877751e+04 
       1.223369624451e-02       2.382304723561e+04 
       1.236349267858e-02       2.389094902490e+04 
       1.249332580927e-02       2.395643548999e+04 
       1.262319547707e-02       2.401949487441e+04 
       1.275310155224e-02       2.408020091918e+04 
       1.288304393385e-02       2.413857132365e+04 
       1.301302254903e-02       2.419461813342e+04 
       1.314303735211e-02       2.424833162616e+04 
       1.327308832397e-02       2.429982986259e+04 
       1.340317547138e-02       2.434907467326e+04 
       1.353329882634e-02       2.439613499267e+04 
       1.366345844560e-02       2.444099424482e+04 
       1.379365441007e-02       2.448373221662e+04 
       1.392388682441e-02       2.452431210946e+04 
       1.405415581658e-02       2.456280348771e+04 
       1.418446153744e-02       2.459919555249e+04 
       1.431480416042e-02       2.463359646721e+04 
       1.444518388118e-02       2.466590228533e+04 
       1.457560091735e-02       2.469625877382e+04 
       1.470605550826e-02       2.472470232183e+04 
       1.483654791471e-02       2.475105292630e+04 
       1.496707841883e-02       2.477554438812e+04 
       1.509764732382e-02       2.479814470595e+04 
       1.522825495392e-02       2.481888824654e+04 
       1.535890165420e-02       2.483777509895e+04 
       1.548958779054e-02       2.485480425932e+04 
       1.562031374954e-02       2.487007693797e+04 
       1.575107993846e-02       2.488354409758e+04 
       1.588188678525e-02       2.489525196688e+04 
       1.601273473850e-02       2.490522564335e+04 
       1.614362426748e-02       2.491351373708e+04 
       1.627455586219e-02       2.492009309912e+04 
       1.640553003342e-02       2.492502770852e+04 
       1.653654731284e-02       2.492830903912e+04 
       1.666760825308e-02       2.492998493455e+04 
       1.679871342786e-02       2.493004032871e+04 
       1.692986343213e-02       2.492854064406e+04 
       1.706105888222e-02       2.492548423953e+04 
       1.719230041601e-02       2.492085404738e+04 
       1.732358869314e-02       2.491477518957e+04 
       1.745492439519e-02       2.490720148787e+04 
       1.758630822591e-02       2.489814033212e+04 
       1.771774091148e-02       2.488763673684e+04 
       1.784922320075e-02       2.487568169777e+04 
       1.798075586552e-02       2.486236088212e+04 
       1.811233970081e-02       2.484764735546e+04 
       1.824397552522e-02       2.483155882957e+04 
       1.837566418119e-02       2.481413717318e+04 
       1.850740653539e-02       2.479539514499e+04 
       1.863920347907e-02       2.477533265860e+04 
       1.877105592840e-02       2.475399700485e+04 
       1.890296482491e-02       2.473140013063e+04 
       1.903493113585e-02       2.470753802388e+04 
       1.916695585466e-02       2.468246529933e+04 
       1.929904000140e-02       2.465619585015e+04 
       1.943118462320e-02       2.462871930205e+04 
       1.956339079474e-02       2.460007045649e+04 
       1.969565961876e-02       2.457029440333e+04 
       1.982799222657e-02       2.453937377209e+04 
       1.996038977859e-02       2.450734785919e+04 
       2.009285346489e-02       2.447420651618e+04 
       2.022538450578e-02       2.444000191550e+04 
       2.035798415238e-02       2.440475113638e+04 
       2.049065368728e-02       2.436842755312e+04 
       2.062339442512e-02       2.433112677458e+04 
       2.075620771328e-02       2.429281052535e+04 
       2.088909493254e-02       2.425345340693e+04 
       2.102205749780e-02       2.421318288297e+04 
       2.115509685878e-02       2.417191642954e+04 
       2.128821450077e-02       2.412980682515e+04 
       2.142141194544e-02       2.408662008589e+04 
       2.155469075155e-02       2.404264876848e+04 
       2.168805251584e-02       2.399773245011e+04 
       2.182149887387e-02       2.395195388295e+04 
       2.195503150086e-02       2.390532929279e+04 
       2.208865211260e-02       2.385789026806e+04 
       2.222236246639e-02       2.380963279034e+04 
       2.235616436199e-02       2.376050998941e+04 
       2.249005964261e-02       2.371065954822e+04 
       2.262405019591e-02       2.366001503943e+04 
       2.275813795508e-02       2.360856884409e+04 
       2.289232489987e-02       2.355638761307e+04 
       2.302661305778e-02       2.350353584369e+04 
       2.316100450515e-02       2.344989951827e+04 
       2.329550136835e-02       2.339563366815e+04 
       2.343010582505e-02       2.334067600844e+04 
       2.356482010544e-02       2.328505206978e+04 
       2.369964649352e-02       2.322870312341e+04 
       2.383458732851e-02       2.317177469211e+04 
       2.396964500615e-02       2.311413973889e+04 
       2.410482198019e-02       2.305593742987e+04 
       2.424012076385e-02       2.299713888905e+04 
       2.437554393133e-02       2.293778665168e+04 
       2.451109411939e-02       2.287787349636e+04 
       2.464677402898e-02       2.281733860845e+04 
       2.478258642689e-02       2.275623826263e+04 
       2.491853414750e-02       2.269468464546e+04 
       2.505462009456e-02       2.263261713710e+04 
       2.519084724304e-02       2.256999718853e+04 
       2.532721864101e-02       2.250691762166e+04 
       2.546373741164e-02       2.244322572434e+04 
       2.560040675519e-02       2.237918153066e+04 
       2.573722995118e-02       2.231466869826e+04 
       2.587421036047e-02       2.224975614560e+04 
       2.601135142760e-02       2.218433619155e+04 
       2.614865668303e-02       2.211845477402e+04 
       2.628612974560e-02       2.205226756392e+04 
       2.642377432498e-02       2.198561689308e+04 
       2.656159422425e-02       2.191861750093e+04 
       2.669959334255e-02       2.185121070935e+04 
       2.683777567787e-02       2.178350338758e+04 
       2.697614532985e-02       2.171534750915e+04 
       2.711470650275e-02       2.164692396835e+04 
       2.725346350851e-02       2.157817227963e+04 
       2.739242076994e-02       2.150907257323e+04 
       2.753158282394e-02       2.143958559758e+04 
       2.767095432496e-02       2.136988251430e+04 
       2.781054004850e-02       2.129991647689e+04 
       2.795034489477e-02       2.122954948653e+04 
       2.809037389249e-02       2.115909181196e+04 
       2.823063220280e-02       2.108829213874e+04 
       2.837112512338e-02       2.101721696465e+04 
       2.851185809267e-02       2.094582504219e+04 
       2.865283669427e-02       2.087431130741e+04 
       2.879406666152e-02       2.080249779871e+04 
       2.893555388224e-02       2.073051183732e+04 
       2.907730440370e-02       2.065828134220e+04 
       2.921932443769e-02       2.058596125590e+04 
       2.936162036594e-02       2.051336767192e+04 
       2.950419874559e-02       2.044055485471e+04 
       2.964706631503e-02       2.036762467651e+04 
       2.979022999988e-02       2.029453069650e+04 
       2.993369691926e-02       2.022132866688e+04 
       3.007747439231e-02       2.014786502377e+04 
       3.022156994498e-02       2.007436126533e+04 
       3.036599131712e-02       2.000060043068e+04 
       3.051074646987e-02       1.992680653378e+04 
       3.065584359332e-02       1.985284404222e+04 
       3.080129111460e-02       1.977880023365e+04 
       3.094709770622e-02       1.970463447857e+04 
       3.109327229483e-02       1.963038560022e+04 
       3.123982407039e-02       1.955598568879e+04 
       3.138676249569e-02       1.948155476902e+04 
       3.153409731637e-02       1.940703869043e+04 
       3.168183857133e-02       1.933253397298e+04 
       3.182999660368e-02       1.925780981367e+04 
       3.197858207216e-02       1.918304956701e+04 
       3.212760596310e-02       1.910829232795e+04 
       3.227707960298e-02       1.903345070935e+04 
       3.242701467157e-02       1.895849991465e+04 
       3.257742321567e-02       1.888360239112e+04 
       3.272831766358e-02       1.880860582213e+04 
       3.287971084027e-02       1.873363413700e+04 
       3.303161598327e-02       1.865859159707e+04 
       3.318404675938e-02       1.858353250216e+04 
       3.333701728224e-02       1.850849349264e+04 
       3.349054213081e-02       1.843339789500e+04 
       3.364463636875e-02       1.835830108574e+04 
       3.379931556487e-02       1.828321239423e+04 
       3.395459581468e-02       1.820804465100e+04 
       3.411049376300e-02       1.813296500959e+04 
       3.426702662790e-02       1.805785181413e+04 
       3.442421222585e-02       1.798283165513e+04 
       3.458206899836e-02       1.790772087612e+04 
       3.474061604002e-02       1.783257244666e+04 
       3.489987312815e-02       1.775751170385e+04 
       3.505986075418e-02       1.768251175840e+04 
       3.522060015677e-02       1.760748236929e+04 
       3.538211335696e-02       1.753247350423e+04 
       3.554442319525e-02       1.745747794457e+04 
       3.570755337109e-02       1.738258258357e+04 
       3.587152848455e-02       1.730765415112e+04 
       3.603637408072e-02       1.723276717359e+04 
       3.620211669673e-02       1.715786032348e+04 
       3.636878391178e-02       1.708299435095e+04 
       3.653640440034e-02       1.700825804271e+04 
       3.670500798871e-02       1.693350351775e+04 
       3.687462571538e-02       1.685877451530e+04 
       3.704528989521e-02       1.678403510857e+04 
       3.721703418802e-02       1.670945067279e+04 
       3.738989367174e-02       1.663476153303e+04 
       3.756390492062e-02       1.656021589735e+04 
       3.773910608882e-02       1.648562113317e+04 
       3.791553699991e-02       1.641111938719e+04 
       3.809323924274e-02       1.633664281049e+04 
       3.827225627425e-02       1.626212623235e+04 
       3.845263352981e-02       1.618769443213e+04 
       3.863441854176e-02       1.611328011518e+04 
       3.881766106688e-02       1.603892243047e+04 
       3.900241322368e-02       1.596451201133e+04 
       3.918872964022e-02       1.589018703184e+04 
       3.937666761377e-02       1.581589553641e+04 
       3.956628728303e-02       1.574153039899e+04 
       3.975765181456e-02       1.566723135798e+04 
       3.995082760442e-02       1.559296493810e+04 
       4.014588449686e-02       1.551866301812e+04 
       4.034289602152e-02       1.544435967183e+04 
       4.054193965128e-02       1.537005248220e+04 
       4.074309708274e-02       1.529573308112e+04 
       4.094645454185e-02       1.522139068263e+04 
       4.115210311733e-02       1.514703385674e+04 
       4.136013912504e-02       1.507265489049e+04 
       4.157066450664e-02       1.499815344403e+04 
       4.178378726659e-02       1.492373928810e+04 
       4.199962195174e-02       1.484926348883e+04 
       4.221829017879e-02       1.477462570514e+04 
       4.243992121517e-02       1.469997327447e+04 
       4.266465261996e-02       1.462521455421e+04 
       4.289263095237e-02       1.455036320085e+04 
       4.312401255639e-02       1.447543063488e+04 
       4.335896443142e-02       1.440036536281e+04 
       4.359766520032e-02       1.432520051044e+04 
       4.384030618811e-02       1.424985206855e+04 
       4.408709262643e-02       1.417439857175e+04 
       4.433824500167e-02       1.409869902599e+04 
       4.459400056723e-02       1.402288157537e+04 
       4.485461504426e-02       1.394678111044e+04 
       4.512036453906e-02       1.387050521981e+04 
       4.539154771049e-02       1.379400034257e+04 
       4.566848822681e-02       1.371718642188e+04 
       4.595153755833e-02       1.364008428816e+04 
       4.624107816139e-02       1.356265507213e+04 
       4.653752711965e-02       1.348485950661e+04 
       4.684134032173e-02       1.340670990230e+04 
       4.715301727024e-02       1.332808988870e+04 
       4.747310663700e-02       1.324905557646e+04 
       4.780221270340e-02       1.316952694706e+04 
       4.814100285503e-02       1.308941859410e+04 
       4.849021633749e-02       1.300876510853e+04 
       4.885067452707e-02       1.292745610501e+04 
       4.922329302914e-02       1.284542737381e+04 
       4.960909599182e-02       1.276261434448e+04 
       5.000923311649e-02       1.267894434083e+04 
       5.042499996672e-02       1.259434641799e+04 
       5.085786232947e-02       1.250869468481e+04 
       5.130948557676e-02       1.242189428871e+04 
       5.178177022358e-02       1.233379637339e+04 
       5.227689519273e-02       1.224430209808e+04 
       5.279737069573e-02       1.215317675466e+04 
       5.334610313742e-02       1.206024098153e+04 
       5.392647506411e-02       1.196520012593e+04 
       5.454244390215e-02       1.186781913940e+04 
       5.519866404304e-02       1.176769423841e+04 
       5.590063761873e-02       1.166437605953e+04 
       5.665489981573e-02       1.155727878527e+04 
       5.746924423008e-02       1.144573467811e+04 
       5.835299139430e-02       1.132865890343e+04 
       5.931729693214e-02       1.120501291485e+04 
       6.037548061659e-02       1.107305118512e+04 
       6.154332677937e-02       1.093074118662e+04 
       6.283924951609e-02       1.077511176547e+04 
