# Matter power spectrum P(k) at redshift z=0
# for k=1.05281e-05 to 110.562 h/Mpc,
# number of wavenumbers equal to 586
#    1:k (h/Mpc)              2:P (Mpc/h)^3        
       1.052807963578e-05       4.927701317314e+01 
       2.352713877128e-05       1.067958336306e+02 
       3.657270395910e-05       1.632429328668e+02 
       4.970052343139e-05       2.192558234788e+02 
       6.294694706346e-05       2.751942622573e+02 
       7.634925644306e-05       3.313261584915e+02 
       8.994600567360e-05       3.878795895054e+02 
       1.037773775211e-04       4.450640433309e+02 
       1.178855595494e-04       5.030812934554e+02 
       1.323151449221e-04       5.621319608903e+02 
       1.471135625522e-04       6.224200518173e+02 
       1.623315412098e-04       6.840821781139e+02 
       1.780236119899e-04       7.474730767318e+02 
       1.942486531248e-04       8.127647500333e+02 
       2.110704803784e-04       8.802057154297e+02 
       2.285584850483e-04       9.500622841074e+02 
       2.467883197222e-04       1.022621139313e+03 
       2.658426291575e-04       1.098191923095e+03 
       2.858118196580e-04       1.177109813180e+03 
       3.067948547504e-04       1.259738051511e+03 
       3.289000573938e-04       1.346470328949e+03 
       3.522458889436e-04       1.437732887456e+03 
       3.769616622471e-04       1.533986198946e+03 
       4.031881303182e-04       1.635725913558e+03 
       4.310778731430e-04       1.743482862028e+03 
       4.607953840079e-04       1.857821613327e+03 
       4.925167350372e-04       1.979337261034e+03 
       5.264286824636e-04       2.108649828804e+03 
       5.627270604340e-04       2.246395861908e+03 
       6.016143146715e-04       2.393216684865e+03 
       6.432960524117e-04       2.549743042165e+03 
       6.879765412181e-04       2.716576003277e+03 
       7.358531826733e-04       2.894264551664e+03 
       7.871101174963e-04       3.083280576977e+03 
       8.419112759710e-04       3.283992883663e+03 
       9.003933482234e-04       3.496641976450e+03 
       9.626592773655e-04       3.721318253779e+03 
       1.028772934362e-03       3.957946009631e+03 
       1.098755583872e-03       4.206275261102e+03 
       1.172584584722e-03       4.465883251363e+03 
       1.250194508415e-03       4.736185481030e+03 
       1.331480555359e-03       5.016455677921e+03 
       1.416303868000e-03       5.305889756412e+03 
       1.504498142286e-03       5.603558593328e+03 
       1.595876857627e-03       5.908465910379e+03 
       1.690240480427e-03       6.219612152210e+03 
       1.787383118814e-03       6.536001762384e+03 
       1.887098274083e-03       6.856665146251e+03 
       1.989183506405e-03       7.180675737804e+03 
       2.093443979114e-03       7.507162246739e+03 
       2.199694952594e-03       7.835316404199e+03 
       2.307763363477e-03       8.164397317877e+03 
       2.417488653685e-03       8.493732199975e+03 
       2.528723016384e-03       8.822715105752e+03 
       2.641331212050e-03       9.150804135891e+03 
       2.755190085468e-03       9.477517602351e+03 
       2.870187889577e-03       9.802430589249e+03 
       2.986223498027e-03       1.012516810281e+04 
       3.103205567240e-03       1.044540330379e+04 
       3.221051691227e-03       1.076284890670e+04 
       3.339687578590e-03       1.107725756225e+04 
       3.459046270523e-03       1.138841493613e+04 
       3.579067410833e-03       1.169613557506e+04 
       3.699696573416e-03       1.200026090073e+04 
       3.820884648717e-03       1.230065547160e+04 
       3.942587288154e-03       1.259720566762e+04 
       4.064764403838e-03       1.288981642875e+04 
       4.187379719976e-03       1.317840734893e+04 
       4.310400371864e-03       1.346291371246e+04 
       4.433796548217e-03       1.374328365587e+04 
       4.557541172652e-03       1.401947725979e+04 
       4.681609620309e-03       1.429146414935e+04 
       4.805979465866e-03       1.455919606352e+04 
       4.930630259525e-03       1.482270820836e+04 
       5.055543327810e-03       1.508196563709e+04 
       5.180701596389e-03       1.533697532515e+04 
       5.306089432377e-03       1.558777532424e+04 
       5.431692503891e-03       1.583433353665e+04 
       5.557497654851e-03       1.607666857230e+04 
       5.683492793264e-03       1.631479315887e+04 
       5.809666791453e-03       1.654872963403e+04 
       5.936009396828e-03       1.677849869617e+04 
       6.062511152017e-03       1.700413226478e+04 
       6.189163323278e-03       1.722565062021e+04 
       6.315957836252e-03       1.744309876922e+04 
       6.442887218245e-03       1.765649591099e+04 
       6.569944546297e-03       1.786586093412e+04 
       6.697123400411e-03       1.807126690803e+04 
       6.824417821363e-03       1.827271157915e+04 
       6.951822272614e-03       1.847025725679e+04 
       7.079331605864e-03       1.866392217001e+04 
       7.206941029872e-03       1.885373447360e+04 
       7.334646082201e-03       1.903977054828e+04 
       7.462442603569e-03       1.922202302194e+04 
       7.590326714554e-03       1.940054102945e+04 
       7.718294794396e-03       1.957540224520e+04 
       7.846343461705e-03       1.974659900398e+04 
       7.974469556861e-03       1.991418543599e+04 
       8.102670125961e-03       2.007820710662e+04 
       8.230942406143e-03       2.023867510610e+04 
       8.359283812172e-03       2.039564957584e+04 
       8.487691924149e-03       2.054919369297e+04 
       8.616164476255e-03       2.069929675469e+04 
       8.744699346420e-03       2.084602917858e+04 
       8.873294546837e-03       2.098937747204e+04 
       9.001948215243e-03       2.112945381298e+04 
       9.130658606899e-03       2.126625982342e+04 
       9.259424087209e-03       2.139985769659e+04 
       9.388243124907e-03       2.153023845738e+04 
       9.517114285788e-03       2.165746297870e+04 
       9.646036226911e-03       2.178156401223e+04 
       9.775007691250e-03       2.190253553970e+04 
       9.904027502745e-03       2.202049516742e+04 
       1.003309456173e-02       2.213543951506e+04 
       1.016220784070e-02       2.224739754807e+04 
       1.029136638038e-02       2.235644478415e+04 
       1.042056928610e-02       2.246254105605e+04 
       1.054981572441e-02       2.256577884628e+04 
       1.067910492000e-02       2.266617205112e+04 
       1.080843615271e-02       2.276376351738e+04 
       1.093780875492e-02       2.285863107991e+04 
       1.106722210901e-02       2.295063666414e+04 
       1.119667564505e-02       2.303999047735e+04 
       1.132616883861e-02       2.312667170758e+04 
       1.145570120876e-02       2.321070924292e+04 
       1.158527231624e-02       2.329218670320e+04 
       1.171488176167e-02       2.337094008633e+04 
       1.184452918396e-02       2.344722816113e+04 
       1.197421425880e-02       2.352102060454e+04 
       1.210393669726e-02       2.359228082147e+04 
       1.223369624451e-02       2.366111347188e+04 
       1.236349267858e-02       2.372749788510e+04 
       1.249332580927e-02       2.379145230184e+04 
       1.262319547707e-02       2.385307967782e+04 
       1.275310155224e-02       2.391235996481e+04 
       1.288304393385e-02       2.396931507558e+04 
       1.301302254903e-02       2.402399037325e+04 
       1.314303735211e-02       2.407648471222e+04 
       1.327308832397e-02       2.412668036992e+04 
       1.340317547138e-02       2.417466634627e+04 
       1.353329882634e-02       2.422040124757e+04 
       1.366345844560e-02       2.426407699424e+04 
       1.379365441007e-02       2.430562575748e+04 
       1.392388682441e-02       2.434508560183e+04 
       1.405415581658e-02       2.438246699373e+04 
       1.418446153744e-02       2.441782621493e+04 
       1.431480416042e-02       2.445117916179e+04 
       1.444518388118e-02       2.448252290183e+04 
       1.457560091735e-02       2.451190903045e+04 
       1.470605550826e-02       2.453937149369e+04 
       1.483654791471e-02       2.456489452458e+04 
       1.496707841883e-02       2.458856573513e+04 
       1.509764732382e-02       2.461035773460e+04 
       1.522825495392e-02       2.463026529764e+04 
       1.535890165420e-02       2.464842704341e+04 
       1.548958779054e-02       2.466478786706e+04 
       1.562031374954e-02       2.467937619992e+04 
       1.575107993846e-02       2.469219711020e+04 
       1.588188678525e-02       2.470331270363e+04 
       1.601273473850e-02       2.471275112647e+04 
       1.614362426748e-02       2.472048877462e+04 
       1.627455586219e-02       2.472658537481e+04 
       1.640553003342e-02       2.473113713413e+04 
       1.653654731284e-02       2.473392073942e+04 
       1.666760825308e-02       2.473520750245e+04 
       1.679871342786e-02       2.473494328894e+04 
       1.692986343213e-02       2.473311905306e+04 
       1.706105888222e-02       2.472978476766e+04 
       1.719230041601e-02       2.472496017002e+04 
       1.732358869314e-02       2.471861917585e+04 
       1.745492439519e-02       2.471090066060e+04 
       1.758630822591e-02       2.470170532173e+04 
       1.771774091148e-02       2.469110206605e+04 
       1.784922320075e-02       2.467910784305e+04 
       1.798075586552e-02       2.466581724118e+04 
       1.811233970081e-02       2.465101732763e+04 
       1.824397552522e-02       2.463505815907e+04 
       1.837566418119e-02       2.461771454308e+04 
       1.850740653539e-02       2.459900271723e+04 
       1.863920347907e-02       2.457909586228e+04 
       1.877105592840e-02       2.455793416488e+04 
       1.890296482491e-02       2.453553568929e+04 
       1.903493113585e-02       2.451194227267e+04 
       1.916695585466e-02       2.448713337960e+04 
       1.929904000140e-02       2.446117222345e+04 
       1.943118462320e-02       2.443402493129e+04 
       1.956339079474e-02       2.440576225184e+04 
       1.969565961876e-02       2.437638212187e+04 
       1.982799222657e-02       2.434591350745e+04 
       1.996038977859e-02       2.431433532404e+04 
       2.009285346489e-02       2.428170135284e+04 
       2.022538450578e-02       2.424803870793e+04 
       2.035798415238e-02       2.421333908087e+04 
       2.049065368728e-02       2.417759266606e+04 
       2.062339442512e-02       2.414089282014e+04 
       2.075620771328e-02       2.410323916065e+04 
       2.088909493254e-02       2.406455042656e+04 
       2.102205749780e-02       2.402499687556e+04 
       2.115509685878e-02       2.398446510549e+04 
       2.128821450077e-02       2.394303970780e+04 
       2.142141194544e-02       2.390074725817e+04 
       2.155469075155e-02       2.385754661263e+04 
       2.168805251584e-02       2.381349250579e+04 
       2.182149887387e-02       2.376858036030e+04 
       2.195503150086e-02       2.372287379395e+04 
       2.208865211260e-02       2.367631880095e+04 
       2.222236246639e-02       2.362902671227e+04 
       2.235616436199e-02       2.358089732167e+04 
       2.249005964261e-02       2.353199327946e+04 
       2.262405019591e-02       2.348238926387e+04 
       2.275813795508e-02       2.343200877226e+04 
       2.289232489987e-02       2.338093443187e+04 
       2.302661305778e-02       2.332912761027e+04 
       2.316100450515e-02       2.327665204710e+04 
       2.329550136835e-02       2.322351756198e+04 
       2.343010582505e-02       2.316966918191e+04 
       2.356482010544e-02       2.311520508285e+04 
       2.369964649352e-02       2.306010731688e+04 
       2.383458732851e-02       2.300435853833e+04 
       2.396964500615e-02       2.294805901900e+04 
       2.410482198019e-02       2.289112255442e+04 
       2.424012076385e-02       2.283362996867e+04 
       2.437554393133e-02       2.277556062412e+04 
       2.451109411939e-02       2.271697198195e+04 
       2.464677402898e-02       2.265774454769e+04 
       2.478258642689e-02       2.259808174789e+04 
       2.491853414750e-02       2.253789639068e+04 
       2.505462009456e-02       2.247723943366e+04 
       2.519084724304e-02       2.241604805472e+04 
       2.532721864101e-02       2.235440597130e+04 
       2.546373741164e-02       2.229217624580e+04 
       2.560040675519e-02       2.222967166414e+04 
       2.573722995118e-02       2.216654701129e+04 
       2.587421036047e-02       2.210314286639e+04 
       2.601135142760e-02       2.203934375145e+04 
       2.614865668303e-02       2.197501178183e+04 
       2.628612974560e-02       2.191031872393e+04 
       2.642377432498e-02       2.184525820996e+04 
       2.656159422425e-02       2.177979999347e+04 
       2.669959334255e-02       2.171409194011e+04 
       2.683777567787e-02       2.164792334695e+04 
       2.697614532985e-02       2.158146202063e+04 
       2.711470650275e-02       2.151461487274e+04 
       2.725346350851e-02       2.144753452966e+04 
       2.739242076994e-02       2.138009533807e+04 
       2.753158282394e-02       2.131242787946e+04 
       2.767095432496e-02       2.124433911537e+04 
       2.781054004850e-02       2.117608905436e+04 
       2.795034489477e-02       2.110749603455e+04 
       2.809037389249e-02       2.103871554169e+04 
       2.823063220280e-02       2.096963174291e+04 
       2.837112512338e-02       2.090032299712e+04 
       2.851185809267e-02       2.083076128262e+04 
       2.865283669427e-02       2.076100137510e+04 
       2.879406666152e-02       2.069103385599e+04 
       2.893555388224e-02       2.062086753703e+04 
       2.907730440370e-02       2.055047066040e+04 
       2.921932443769e-02       2.047996204861e+04 
       2.936162036594e-02       2.040925983835e+04 
       2.950419874559e-02       2.033827228314e+04 
       2.964706631503e-02       2.026719641471e+04 
       2.979022999988e-02       2.019596744055e+04 
       2.993369691926e-02       2.012456024303e+04 
       3.007747439231e-02       2.005308072159e+04 
       3.022156994498e-02       1.998139369203e+04 
       3.036599131712e-02       1.990964960596e+04 
       3.051074646987e-02       1.983769003091e+04 
       3.065584359332e-02       1.976570573209e+04 
       3.080129111460e-02       1.969358890937e+04 
       3.094709770622e-02       1.962138409974e+04 
       3.109327229483e-02       1.954909550640e+04 
       3.123982407039e-02       1.947669932862e+04 
       3.138676249569e-02       1.940426217641e+04 
       3.153409731637e-02       1.933174259772e+04 
       3.168183857133e-02       1.925912137554e+04 
       3.182999660368e-02       1.918639321333e+04 
       3.197858207216e-02       1.911371805384e+04 
       3.212760596310e-02       1.904095214327e+04 
       3.227707960298e-02       1.896811364876e+04 
       3.242701467157e-02       1.889532132533e+04 
       3.257742321567e-02       1.882242707573e+04 
       3.272831766358e-02       1.874942392729e+04 
       3.287971084027e-02       1.867652224311e+04 
       3.303161598327e-02       1.860362066990e+04 
       3.318404675938e-02       1.853063591982e+04 
       3.333701728224e-02       1.845764805487e+04 
       3.349054213081e-02       1.838464600513e+04 
       3.364463636875e-02       1.831160468152e+04 
       3.379931556487e-02       1.823870085984e+04 
       3.395459581468e-02       1.816567192507e+04 
       3.411049376300e-02       1.809273370274e+04 
       3.426702662790e-02       1.801974866595e+04 
       3.442421222585e-02       1.794684897433e+04 
       3.458206899836e-02       1.787391418597e+04 
       3.474061604002e-02       1.780100141389e+04 
       3.489987312815e-02       1.772817909694e+04 
       3.505986075418e-02       1.765528817458e+04 
       3.522060015677e-02       1.758246387360e+04 
       3.538211335696e-02       1.750968374937e+04 
       3.554442319525e-02       1.743691539456e+04 
       3.570755337109e-02       1.736424608814e+04 
       3.587152848455e-02       1.729156863670e+04 
       3.603637408072e-02       1.721893560051e+04 
       3.620211669673e-02       1.714633416830e+04 
       3.636878391178e-02       1.707374438005e+04 
       3.653640440034e-02       1.700133325909e+04 
       3.670500798871e-02       1.692885866169e+04 
       3.687462571538e-02       1.685644981258e+04 
       3.704528989521e-02       1.678408370137e+04 
       3.721703418802e-02       1.671178414954e+04 
       3.738989367174e-02       1.663952073993e+04 
       3.756390492062e-02       1.656734838773e+04 
       3.773910608882e-02       1.649509995398e+04 
       3.791553699991e-02       1.642305239632e+04 
       3.809323924274e-02       1.635099719976e+04 
       3.827225627425e-02       1.627896695449e+04 
       3.845263352981e-02       1.620697491410e+04 
       3.863441854176e-02       1.613508378626e+04 
       3.881766106688e-02       1.606320701878e+04 
       3.900241322368e-02       1.599136669580e+04 
       3.918872964022e-02       1.591960695988e+04 
       3.937666761377e-02       1.584785266176e+04 
       3.956628728303e-02       1.577608750081e+04 
       3.975765181456e-02       1.570440589844e+04 
       3.995082760442e-02       1.563276254950e+04 
       4.014588449686e-02       1.556113722543e+04 
       4.034289602152e-02       1.548947461035e+04 
       4.054193965128e-02       1.541795114742e+04 
       4.074309708274e-02       1.534637972162e+04 
       4.094645454185e-02       1.527479378821e+04 
       4.115210311733e-02       1.520329031033e+04 
       4.136013912504e-02       1.513177746488e+04 
       4.157066450664e-02       1.506020932977e+04 
       4.178378726659e-02       1.498865533038e+04 
       4.199962195174e-02       1.491705584953e+04 
       4.221829017879e-02       1.484548988711e+04 
       4.243992121517e-02       1.477387790949e+04 
       4.266465261996e-02       1.470217478775e+04 
       4.289263095237e-02       1.463050183220e+04 
       4.312401255639e-02       1.455874385143e+04 
       4.335896443142e-02       1.448691877082e+04 
       4.359766520032e-02       1.441500829404e+04 
       4.384030618811e-02       1.434307243135e+04 
       4.408709262643e-02       1.427095362300e+04 
       4.433824500167e-02       1.419880753704e+04 
       4.459400056723e-02       1.412649768356e+04 
       4.485461504426e-02       1.405403520710e+04 
       4.512036453906e-02       1.398145090978e+04 
       4.539154771049e-02       1.390873023364e+04 
       4.566848822681e-02       1.383577690883e+04 
       4.595153755833e-02       1.376263279883e+04 
       4.624107816139e-02       1.368926299913e+04 
       4.653752711965e-02       1.361563465901e+04 
       4.684134032173e-02       1.354176601017e+04 
       4.715301727024e-02       1.346759579217e+04 
       4.747310663700e-02       1.339312507704e+04 
       4.780221270340e-02       1.331824232506e+04 
       4.814100285503e-02       1.324298247246e+04 
       4.849021633749e-02       1.316732840361e+04 
       4.885067452707e-02       1.309123544521e+04 
       4.922329302914e-02       1.301456386038e+04 
       4.960909599182e-02       1.293736245460e+04 
       5.000923311649e-02       1.285953490180e+04 
       5.042499996672e-02       1.278103650749e+04 
       5.085786232947e-02       1.270179092881e+04 
       5.130948557676e-02       1.262167789339e+04 
       5.178177022358e-02       1.254064123638e+04 
       5.227689519273e-02       1.245858187581e+04 
       5.279737069573e-02       1.237532351192e+04 
       5.334610313742e-02       1.229074041633e+04 
       5.392647506411e-02       1.220460641170e+04 
       5.454244390215e-02       1.211673105643e+04 
       5.519866404304e-02       1.202679966973e+04 
       5.590063761873e-02       1.193447380709e+04 
       5.665489981573e-02       1.183929282865e+04 
       5.746924423008e-02       1.174062199002e+04 
       5.835299139430e-02       1.163774046267e+04 
       5.931729693214e-02       1.152954926203e+04 
       6.037548061659e-02       1.141462944088e+04 
       6.154332677937e-02       1.129109173588e+04 
       6.283924951609e-02       1.115617166824e+04 
