# Matter power spectrum P(k) at redshift z=1
# for k=1.05281e-05 to 110.562 h/Mpc,
# number of wavenumbers equal to 586
#    1:k (h/Mpc)              2:P (Mpc/h)^3        
       1.052807963578e-05       1.806673869937e+01 
       2.352713877128e-05       3.915525794464e+01 
       3.657270395910e-05       5.985094797666e+01 
       4.970052343139e-05       8.038759371310e+01 
       6.294694706346e-05       1.008971470132e+02 
       7.634925644306e-05       1.214778932365e+02 
       8.994600567360e-05       1.422135170550e+02 
       1.037773775211e-04       1.631808969596e+02 
       1.178855595494e-04       1.844540891630e+02 
       1.323151449221e-04       2.061067378515e+02 
       1.471135625522e-04       2.282137414422e+02 
       1.623315412098e-04       2.508525464780e+02 
       1.780236119899e-04       2.741042501361e+02 
       1.942486531248e-04       2.980546041579e+02 
       2.110704803784e-04       3.227949770310e+02 
       2.285584850483e-04       3.484233026644e+02 
       2.467883197222e-04       3.750450297924e+02 
       2.658426291575e-04       4.027740788810e+02 
       2.858118196580e-04       4.317337948749e+02 
       3.067948547504e-04       4.620578816755e+02 
       3.289000573938e-04       4.938912840123e+02 
       3.522458889436e-04       5.273909692345e+02 
       3.769616622471e-04       5.627265441451e+02 
       4.031881303182e-04       6.000806153838e+02 
       4.310778731430e-04       6.396487798477e+02 
       4.607953840079e-04       6.816391015728e+02 
       4.925167350372e-04       7.262709100470e+02 
       5.264286824636e-04       7.737727314110e+02 
       5.627270604340e-04       8.243791608381e+02 
       6.016143146715e-04       8.783265139671e+02 
       6.432960524117e-04       9.358471227126e+02 
       6.879765412181e-04       9.971622809942e+02 
       7.358531826733e-04       1.062473952833e+03 
       7.871101174963e-04       1.131955582674e+03 
       8.419112759710e-04       1.205742563357e+03 
       9.003933482234e-04       1.283923072454e+03 
       9.626592773655e-04       1.366530198226e+03 
       1.028772934362e-03       1.453536251919e+03 
       1.098755583872e-03       1.544849949924e+03 
       1.172584584722e-03       1.640317025869e+03 
       1.250194508415e-03       1.739724273060e+03 
       1.331480555359e-03       1.842806688014e+03 
       1.416303868000e-03       1.949270651055e+03 
       1.504498142286e-03       2.058776302516e+03 
       1.595876857627e-03       2.170958675886e+03 
       1.690240480427e-03       2.285451150213e+03 
       1.787383118814e-03       2.401888306937e+03 
       1.887098274083e-03       2.519914202336e+03 
       1.989183506405e-03       2.639188774477e+03 
       2.093443979114e-03       2.759392265857e+03 
       2.199694952594e-03       2.880228130098e+03 
       2.307763363477e-03       3.001424169192e+03 
       2.417488653685e-03       3.122733549335e+03 
       2.528723016384e-03       3.243933119922e+03 
       2.641331212050e-03       3.364823516771e+03 
       2.755190085468e-03       3.485227450540e+03 
       2.870187889577e-03       3.604988386994e+03 
       2.986223498027e-03       3.723968152014e+03 
       3.103205567240e-03       3.842046337204e+03 
       3.221051691227e-03       3.959117147465e+03 
       3.339687578590e-03       4.075089437658e+03 
       3.459046270523e-03       4.189883868835e+03 
       3.579067410833e-03       4.303431993656e+03 
       3.699696573416e-03       4.415675000963e+03 
       3.820884648717e-03       4.526563050285e+03 
       3.942587288154e-03       4.636053638152e+03 
       4.064764403838e-03       4.744111365504e+03 
       4.187379719976e-03       4.850706522752e+03 
       4.310400371864e-03       4.955814448879e+03 
       4.433796548217e-03       5.059415755910e+03 
       4.557541172652e-03       5.161494719798e+03 
       4.681609620309e-03       5.262040187633e+03 
       4.805979465866e-03       5.361042744140e+03 
       4.930630259525e-03       5.458498154623e+03 
       5.055543327810e-03       5.554402695069e+03 
       5.180701596388e-03       5.648755207984e+03 
       5.306089432377e-03       5.741557658372e+03 
       5.431692503891e-03       5.832811847762e+03 
       5.557497654851e-03       5.922523997390e+03 
       5.683492793264e-03       6.010698360521e+03 
       5.809666791453e-03       6.097343255135e+03 
       5.936009396828e-03       6.182466257686e+03 
       6.062511152017e-03       6.266076595249e+03 
       6.189163323278e-03       6.348176474070e+03 
       6.315957836252e-03       6.428852062605e+03 
       6.442887218245e-03       6.507990439649e+03 
       6.569944546297e-03       6.585644472909e+03 
       6.697123400411e-03       6.661845058350e+03 
       6.824417821363e-03       6.736598373718e+03 
       6.951822272614e-03       6.809914941615e+03 
       7.079331605863e-03       6.881810858416e+03 
       7.206941029872e-03       6.952297901456e+03 
       7.334646082201e-03       7.021391007800e+03 
       7.462442603569e-03       7.089101929143e+03 
       7.590326714554e-03       7.155445920034e+03 
       7.718294794396e-03       7.220433702973e+03 
       7.846343461705e-03       7.284082288987e+03 
       7.974469556861e-03       7.346401399541e+03 
       8.102670125961e-03       7.407407333359e+03 
       8.230942406143e-03       7.467114236824e+03 
       8.359283812172e-03       7.525530529035e+03 
       8.487691924149e-03       7.582679531833e+03 
       8.616164476255e-03       7.638571224239e+03 
       8.744699346420e-03       7.693216429151e+03 
       8.873294546837e-03       7.746628602101e+03 
       9.001948215243e-03       7.798823957196e+03 
       9.130658606899e-03       7.849813217812e+03 
       9.259424087209e-03       7.899611862924e+03 
       9.388243124907e-03       7.948232618383e+03 
       9.517114285788e-03       7.995688282158e+03 
       9.646036226911e-03       8.041992855313e+03 
       9.775007691250e-03       8.087154934222e+03 
       9.904027502745e-03       8.131192175346e+03 
       1.003309456173e-02       8.174115966720e+03 
       1.016220784070e-02       8.215936767513e+03 
       1.029136638038e-02       8.256672476649e+03 
       1.042056928610e-02       8.296326964057e+03 
       1.054981572441e-02       8.334922403896e+03 
       1.067910492000e-02       8.372467990440e+03 
       1.080843615271e-02       8.408967128083e+03 
       1.093780875492e-02       8.444441073148e+03 
       1.106722210901e-02       8.478900677107e+03 
       1.119667564505e-02       8.512353851750e+03 
       1.132616883861e-02       8.544813430589e+03 
       1.145570120876e-02       8.576297964026e+03 
       1.158527231624e-02       8.606802407579e+03 
       1.171488176167e-02       8.636359049192e+03 
       1.184452918396e-02       8.664967422937e+03 
       1.197421425880e-02       8.692636194047e+03 
       1.210393669726e-02       8.719379951134e+03 
       1.223369624451e-02       8.745213705688e+03 
       1.236349267858e-02       8.770142039407e+03 
       1.249332580927e-02       8.794177751319e+03 
       1.262319547707e-02       8.817334270659e+03 
       1.275310155224e-02       8.839618626519e+03 
       1.288304393385e-02       8.861038450586e+03 
       1.301302254903e-02       8.881614161530e+03 
       1.314303735211e-02       8.901338933124e+03 
       1.327308832397e-02       8.920241307152e+03 
       1.340317547138e-02       8.938320171336e+03 
       1.353329882634e-02       8.955595664171e+03 
       1.366345844560e-02       8.972064970676e+03 
       1.379365441007e-02       8.987751482658e+03 
       1.392388682441e-02       9.002646801929e+03 
       1.405415581658e-02       9.016775158537e+03 
       1.418446153744e-02       9.030140882992e+03 
       1.431480416042e-02       9.042759273410e+03 
       1.444518388118e-02       9.054626313823e+03 
       1.457560091735e-02       9.065765744635e+03 
       1.470605550826e-02       9.076186554393e+03 
       1.483654791471e-02       9.085881656805e+03 
       1.496707841883e-02       9.094874202116e+03 
       1.509764732382e-02       9.103171355294e+03 
       1.522825495392e-02       9.110782824147e+03 
       1.535890165420e-02       9.117714597052e+03 
       1.548958779054e-02       9.123969959519e+03 
       1.562031374954e-02       9.129572369091e+03 
       1.575107993846e-02       9.134519262847e+03 
       1.588188678525e-02       9.138815391557e+03 
       1.601273473850e-02       9.142479883957e+03 
       1.614362426748e-02       9.145521052738e+03 
       1.627455586219e-02       9.147937397352e+03 
       1.640553003342e-02       9.149748250278e+03 
       1.653654731284e-02       9.150949444313e+03 
       1.666760825308e-02       9.151564713931e+03 
       1.679871342786e-02       9.151588529766e+03 
       1.692986343213e-02       9.151034722756e+03 
       1.706105888222e-02       9.149912842387e+03 
       1.719230041601e-02       9.148223524446e+03 
       1.732358869314e-02       9.145984615712e+03 
       1.745492439519e-02       9.143202629214e+03 
       1.758630822591e-02       9.139876373393e+03 
       1.771774091148e-02       9.136019936314e+03 
       1.784922320075e-02       9.131638769495e+03 
       1.798075586552e-02       9.126745716282e+03 
       1.811233970081e-02       9.121338808990e+03 
       1.824397552522e-02       9.115434419219e+03 
       1.837566418119e-02       9.109047807035e+03 
       1.850740653539e-02       9.102160055001e+03 
       1.863920347907e-02       9.094795707727e+03 
       1.877105592840e-02       9.086966137614e+03 
       1.890296482491e-02       9.078668421250e+03 
       1.903493113585e-02       9.069907089936e+03 
       1.916695585466e-02       9.060703319308e+03 
       1.929904000140e-02       9.051060091339e+03 
       1.943118462320e-02       9.040974559183e+03 
       1.956339079474e-02       9.030455478961e+03 
       1.969565961876e-02       9.019527504571e+03 
       1.982799222657e-02       9.008177941135e+03 
       1.996038977859e-02       8.996420917130e+03 
       2.009285346489e-02       8.984253734172e+03 
       2.022538450578e-02       8.971697243375e+03 
       2.035798415238e-02       8.958760089578e+03 
       2.049065368728e-02       8.945429813757e+03 
       2.062339442512e-02       8.931730323698e+03 
       2.075620771328e-02       8.917665296994e+03 
       2.088909493254e-02       8.903218039934e+03 
       2.102205749780e-02       8.888433898182e+03 
       2.115509685878e-02       8.873289146622e+03 
       2.128821450077e-02       8.857812234245e+03 
       2.142141194544e-02       8.841973897305e+03 
       2.155469075155e-02       8.825833689084e+03 
       2.168805251584e-02       8.809344295806e+03 
       2.182149887387e-02       8.792541963774e+03 
       2.195503150086e-02       8.775426832411e+03 
       2.208865211260e-02       8.758009184325e+03 
       2.222236246639e-02       8.740297345622e+03 
       2.235616436199e-02       8.722262913843e+03 
       2.249005964261e-02       8.703964978043e+03 
       2.262405019591e-02       8.685370802877e+03 
       2.275813795508e-02       8.666490523993e+03 
       2.289232489987e-02       8.647330386209e+03 
       2.302661305778e-02       8.627931508536e+03 
       2.316100450515e-02       8.608243284625e+03 
       2.329550136835e-02       8.588319402295e+03 
       2.343010582505e-02       8.568147193132e+03 
       2.356482010544e-02       8.547724604263e+03 
       2.369964649352e-02       8.527042969920e+03 
       2.383458732851e-02       8.506122527156e+03 
       2.396964500615e-02       8.484983692344e+03 
       2.410482198019e-02       8.463619593873e+03 
       2.424012076385e-02       8.442034844242e+03 
       2.437554393133e-02       8.420246840838e+03 
       2.451109411939e-02       8.398234879331e+03 
       2.464677402898e-02       8.376013627047e+03 
       2.478258642689e-02       8.353603075918e+03 
       2.491853414750e-02       8.331006693675e+03 
       2.505462009456e-02       8.308203969178e+03 
       2.519084724304e-02       8.285217050236e+03 
       2.532721864101e-02       8.262061210006e+03 
       2.546373741164e-02       8.238700737322e+03 
       2.560040675519e-02       8.215192149532e+03 
       2.573722995118e-02       8.191488587936e+03 
       2.587421036047e-02       8.167660263041e+03 
       2.601135142760e-02       8.143665304725e+03 
       2.614865668303e-02       8.119477012137e+03 
       2.628612974560e-02       8.095181459874e+03 
       2.642377432498e-02       8.070714804345e+03 
       2.656159422425e-02       8.046118370297e+03 
       2.669959334255e-02       8.021375672180e+03 
       2.683777567787e-02       7.996504204401e+03 
       2.697614532985e-02       7.971499756931e+03 
       2.711470650275e-02       7.946367250755e+03 
       2.725346350851e-02       7.921128680399e+03 
       2.739242076994e-02       7.895763476090e+03 
       2.753158282394e-02       7.870270958748e+03 
       2.767095432496e-02       7.844682273306e+03 
       2.781054004850e-02       7.818984489916e+03 
       2.795034489477e-02       7.793169365631e+03 
       2.809037389249e-02       7.767289061417e+03 
       2.823063220280e-02       7.741299389024e+03 
       2.837112512338e-02       7.715208321353e+03 
       2.851185809267e-02       7.689017209972e+03 
       2.865283669427e-02       7.662749787920e+03 
       2.879406666152e-02       7.636403182294e+03 
       2.893555388224e-02       7.609961456766e+03 
       2.907730440370e-02       7.583459711793e+03 
       2.921932443769e-02       7.556913202393e+03 
       2.936162036594e-02       7.530263242521e+03 
       2.950419874559e-02       7.503535001782e+03 
       2.964706631503e-02       7.476765395862e+03 
       2.979022999988e-02       7.449930709890e+03 
       2.993369691926e-02       7.423058919303e+03 
       3.007747439231e-02       7.396093407385e+03 
       3.022156994498e-02       7.369099364484e+03 
       3.036599131712e-02       7.342031745555e+03 
       3.051074646987e-02       7.314944039965e+03 
       3.065584359332e-02       7.287794130708e+03 
       3.080129111460e-02       7.260613494722e+03 
       3.094709770622e-02       7.233387568047e+03 
       3.109327229483e-02       7.206133705653e+03 
       3.123982407039e-02       7.178821984359e+03 
       3.138676249569e-02       7.151497275626e+03 
       3.153409731637e-02       7.124140658547e+03 
       3.168183857133e-02       7.096792941426e+03 
       3.182999660368e-02       7.069359614261e+03 
       3.197858207216e-02       7.041918805869e+03 
       3.212760596310e-02       7.014476396291e+03 
       3.227707960298e-02       6.987002610427e+03 
       3.242701467157e-02       6.959489089023e+03 
       3.257742321567e-02       6.931992113322e+03 
       3.272831766358e-02       6.904463490034e+03 
       3.287971084027e-02       6.876942903149e+03 
       3.303161598327e-02       6.849395265941e+03 
       3.318404675938e-02       6.821841890547e+03 
       3.333701728224e-02       6.794295444108e+03 
       3.349054213081e-02       6.766728864949e+03 
       3.364463636875e-02       6.739160033810e+03 
       3.379931556487e-02       6.711595666751e+03 
       3.395459581468e-02       6.684003897796e+03 
       3.411049376300e-02       6.656442565574e+03 
       3.426702662790e-02       6.628867712584e+03 
       3.442421222585e-02       6.601320470121e+03 
       3.458206899836e-02       6.573758190072e+03 
       3.474061604002e-02       6.546172336939e+03 
       3.489987312815e-02       6.518617612272e+03 
       3.505986075418e-02       6.491085899805e+03 
       3.522060015677e-02       6.463544678542e+03 
       3.538211335696e-02       6.436005599734e+03 
       3.554442319525e-02       6.408479612920e+03 
       3.570755337109e-02       6.380986136435e+03 
       3.587152848455e-02       6.353479156881e+03 
       3.603637408072e-02       6.325989023797e+03 
       3.620211669673e-02       6.298491262928e+03 
       3.636878391178e-02       6.271010736885e+03 
       3.653640440034e-02       6.243564328221e+03 
       3.670500798871e-02       6.216122694248e+03 
       3.687462571538e-02       6.188697912506e+03 
       3.704528989521e-02       6.161265479929e+03 
       3.721703418802e-02       6.133875401318e+03 
       3.738989367174e-02       6.106466814572e+03 
       3.756390492062e-02       6.079101541229e+03 
       3.773910608882e-02       6.051718695200e+03 
       3.791553699991e-02       6.024360983606e+03 
       3.809323924274e-02       5.997028371924e+03 
       3.827225627425e-02       5.969677451487e+03 
       3.845263352981e-02       5.942351672363e+03 
       3.863441854176e-02       5.915035964001e+03 
       3.881766106688e-02       5.887739827918e+03 
       3.900241322368e-02       5.860426340207e+03 
       3.918872964022e-02       5.833139728911e+03 
       3.937666761377e-02       5.805867217016e+03 
       3.956628728303e-02       5.778571714152e+03 
       3.975765181456e-02       5.751294798899e+03 
       3.995082760442e-02       5.724033293203e+03 
       4.014588449686e-02       5.696757683619e+03 
       4.034289602152e-02       5.669482959342e+03 
       4.054193965128e-02       5.642202800835e+03 
       4.074309708274e-02       5.614920956167e+03 
       4.094645454185e-02       5.587630680917e+03 
       4.115210311733e-02       5.560336442631e+03 
       4.136013912504e-02       5.533031691602e+03 
       4.157066450664e-02       5.505684358207e+03 
       4.178378726659e-02       5.478365081092e+03 
       4.199962195174e-02       5.451028358995e+03 
       4.221829017879e-02       5.423627469766e+03 
       4.243992121517e-02       5.396223303500e+03 
       4.266465261996e-02       5.368780485340e+03 
       4.289263095237e-02       5.341304599916e+03 
       4.312401255639e-02       5.313796279805e+03 
       4.335896443142e-02       5.286243514792e+03 
       4.359766520032e-02       5.258651246361e+03 
       4.384030618811e-02       5.230988088703e+03 
       4.408709262643e-02       5.203291824775e+03 
       4.433824500167e-02       5.175503529562e+03 
       4.459400056723e-02       5.147671701123e+03 
       4.485461504426e-02       5.119735779085e+03 
       4.512036453906e-02       5.091734476300e+03 
       4.539154771049e-02       5.063649688610e+03 
       4.566848822681e-02       5.035454084419e+03 
       4.595153755833e-02       5.007149367577e+03 
       4.624107816139e-02       4.978726330465e+03 
       4.653752711965e-02       4.950169509716e+03 
       4.684134032173e-02       4.921481515518e+03 
       4.715301727024e-02       4.892621090045e+03 
       4.747310663700e-02       4.863610018490e+03 
       4.780221270340e-02       4.834414252453e+03 
       4.814100285503e-02       4.805007547390e+03 
       4.849021633749e-02       4.775400606799e+03 
       4.885067452707e-02       4.745552874927e+03 
       4.922329302914e-02       4.715441156038e+03 
       4.960909599182e-02       4.685041409657e+03 
       5.000923311649e-02       4.654327486143e+03 
       5.042499996672e-02       4.623271345146e+03 
       5.085786232947e-02       4.591831051361e+03 
       5.130948557676e-02       4.559966425181e+03 
       5.178177022358e-02       4.527626712439e+03 
       5.227689519273e-02       4.494775051669e+03 
       5.279737069573e-02       4.461324452088e+03 
       5.334610313742e-02       4.427208528761e+03 
       5.392647506411e-02       4.392323297669e+03 
       5.454244390215e-02       4.356579564956e+03 
       5.519866404304e-02       4.319820701426e+03 
       5.590063761873e-02       4.281894432718e+03 
       5.665489981573e-02       4.242582384115e+03 
       5.746924423008e-02       4.201617692424e+03 
       5.835299139430e-02       4.158661737104e+03 
       5.931729693214e-02       4.113275522104e+03 
       6.037548061659e-02       4.064831938743e+03 
       6.154332677937e-02       4.012591819100e+03 
       6.283924951609e-02       3.955462629152e+03 
