# dimensionless total [l(l+1)/2pi] C_l's
# for l=2 to 3000, i.e. number of multipoles equal to 2999
#
# -> if you prefer output in CAMB/HealPix/LensPix units/order, set 'format' to 'camb' in input file
# -> if you don't want to see such a header, set 'headers' to 'no' in input file
# -> for CMB lensing (phi), these are C_l^phi-phi for the lensing potential.
#    Remember the conversion factors:
#    C_l^dd (deflection) = l(l+1) C_l^phi-phi
#    C_l^gg (shear/convergence) = 1/4 (l(l+1))^2 C_l^phi-phi
#
# 1:l     2:TT                     3:EE                     4:TE                     5:BB                     6:phiphi                 7:TPhi                   8:Ephi               
    2       2.639364355488e-10       2.305619558479e-14       5.803802605442e-13       0.000000000000e+00       5.365316217935e-09       8.086255235318e-10      -4.165558937917e-12 
    3       2.214010775699e-10       3.076825712004e-14       7.920142750059e-13       0.000000000000e+00       3.252114618794e-09       5.421910004791e-10      -3.237424028945e-12 
    4       1.903990041149e-10       2.727569485312e-14       8.039324758088e-13       0.000000000000e+00       2.225648904780e-09       3.938162673318e-10      -2.142321474670e-12 
    5       1.685547986348e-10       1.858615496034e-14       7.099625238863e-13       0.000000000000e+00       1.635095698900e-09       3.004256158535e-10      -1.195587814542e-12 
    6       1.533123719389e-10       1.048897063704e-14       5.738415962807e-13       0.000000000000e+00       1.257489819732e-09       2.369791618134e-10      -4.827103931677e-13 
    7       1.427834504057e-10       5.563251330459e-15       4.362994378454e-13       0.000000000000e+00       9.990752728868e-10       1.916886705785e-10      -1.362537320715e-14 
    8       1.355646454526e-10       3.507124819405e-15       3.202328494873e-13       0.000000000000e+00       8.133829376075e-10       1.581975874922e-10       2.408777907181e-13 
    9       1.307823740941e-10       2.895112291709e-15       2.358181570230e-13       0.000000000000e+00       6.749087538366e-10       1.327637073581e-10       3.300758242137e-13 
   10       1.277555899010e-10       2.586247991300e-15       1.837420918658e-13       0.000000000000e+00       5.686113139659e-10       1.130234017778e-10       3.094199071007e-13 
   11       1.260012728146e-10       2.164664045877e-15       1.584419179104e-13       0.000000000000e+00       4.831235518173e-10       9.815530334714e-11       2.301575335374e-13 
   12       1.252473449702e-10       1.693300219835e-15       1.511713481676e-13       0.000000000000e+00       4.169054130872e-10       8.538062066403e-11       1.334497906437e-13 
   13       1.252393910534e-10       1.325455724347e-15       1.529752584734e-13       0.000000000000e+00       3.629820495323e-10       7.495402871935e-11       4.621101640522e-14 
   14       1.258563770793e-10       1.104301250579e-15       1.567050547525e-13       0.000000000000e+00       3.184802433507e-10       6.630919247704e-11      -1.709747355332e-14 
   15       1.269598215670e-10       9.725496955107e-16       1.580847009611e-13       0.000000000000e+00       2.813284972796e-10       5.899393653617e-11      -5.257005561914e-14 
   16       1.284555920853e-10       8.616636936099e-16       1.555088993506e-13       0.000000000000e+00       2.499979760708e-10       5.278914646461e-11      -6.347917281207e-14 
   17       1.303053642004e-10       7.483316585277e-16       1.495251795174e-13       0.000000000000e+00       2.233369568412e-10       4.747500107440e-11      -5.710735577848e-14 
   18       1.324429485485e-10       6.516779034895e-16       1.419850804825e-13       0.000000000000e+00       2.003854126425e-10       4.285120317724e-11      -4.214200026357e-14 
   19       1.348471295938e-10       5.936568890181e-16       1.346880284254e-13       0.000000000000e+00       1.807195127760e-10       3.885151102773e-11      -2.474136889265e-14 
   20       1.374451833661e-10       5.915323860730e-16       1.294513919635e-13       0.000000000000e+00       1.635374943637e-10       3.534715957092e-11      -1.083973955763e-14 
   21       1.402319489152e-10       6.405327511330e-16       1.272470184062e-13       0.000000000000e+00       1.485346469335e-10       3.228996558334e-11      -2.363074708487e-15 
   22       1.431872130608e-10       7.250914211500e-16       1.285029657974e-13       0.000000000000e+00       1.353175349720e-10       2.960434107036e-11       5.108430927137e-16 
   23       1.463050670763e-10       8.343871894531e-16       1.326435456287e-13       0.000000000000e+00       1.236798425304e-10       2.723682368580e-11      -1.001677001899e-15 
   24       1.495593814160e-10       9.576895476766e-16       1.384935158859e-13       0.000000000000e+00       1.133285336440e-10       2.511317177753e-11      -4.841798720904e-15 
   25       1.529429598674e-10       1.089191668834e-15       1.449018531778e-13       0.000000000000e+00       1.041243128662e-10       2.321490085209e-11      -9.252495693753e-15 
   26       1.564381790143e-10       1.224617145047e-15       1.506311252310e-13       0.000000000000e+00       9.588341687115e-11       2.152035250005e-11      -1.251553995195e-14 
   27       1.600425081438e-10       1.363239688657e-15       1.550141101389e-13       0.000000000000e+00       8.849398828276e-11       2.000260727893e-11      -1.401057518631e-14 
   28       1.637475564583e-10       1.506161287368e-15       1.576042297650e-13       0.000000000000e+00       8.181565081626e-11       1.862317974074e-11      -1.357072469658e-14 
   29       1.675578763393e-10       1.657178248287e-15       1.584069543592e-13       0.000000000000e+00       7.580554987092e-11       1.737327611392e-11      -1.157942995200e-14 
   30       1.714685674225e-10       1.821863628682e-15       1.576359816887e-13       0.000000000000e+00       7.039010807355e-11       1.624121829016e-11      -8.749259334610e-15 
   31       1.754629890512e-10       2.006013969637e-15       1.555800122645e-13       0.000000000000e+00       6.544796447199e-11       1.520535778846e-11      -5.885585238572e-15 
   32       1.795401455697e-10       2.211401428456e-15       1.524797282244e-13       0.000000000000e+00       6.094766197469e-11       1.425880375978e-11      -3.355809273046e-15 
   33       1.836947086347e-10       2.438430645986e-15       1.486152701827e-13       0.000000000000e+00       5.685214382135e-11       1.339196771244e-11      -1.431946743232e-15 
   34       1.879141928079e-10       2.687174020511e-15       1.442448287881e-13       0.000000000000e+00       5.309781375472e-11       1.259022765806e-11      -3.388488941548e-16 
   35       1.921989043643e-10       2.957258844809e-15       1.392625357638e-13       0.000000000000e+00       4.966128509608e-11       1.185148473203e-11       6.330352647630e-17 
   36       1.965471990682e-10       3.247887551029e-15       1.334174963488e-13       0.000000000000e+00       4.651073096058e-11       1.117370742229e-11       7.971058305786e-17 
   37       2.009528608612e-10       3.558222623484e-15       1.264407688824e-13       0.000000000000e+00       4.360021992335e-11       1.055152281899e-11       3.397242859859e-17 
   38       2.054172053654e-10       3.888715169080e-15       1.181871563637e-13       0.000000000000e+00       4.091951717680e-11       9.982046069758e-12       2.848792037033e-17 
   39       2.099397942933e-10       4.240197651157e-15       1.085366555932e-13       0.000000000000e+00       3.845770901602e-11       9.460318507634e-12       1.092399653460e-16 
   40       2.145144391104e-10       4.613529517564e-15       9.735533996730e-14       0.000000000000e+00       3.618813773013e-11       8.977315423404e-12       3.305811191852e-16 
   41       2.191324185549e-10       5.009497209146e-15       8.454260463236e-14       0.000000000000e+00       3.407708957986e-11       8.522740336351e-12       7.298896939833e-16 
   42       2.237948116413e-10       5.428472630266e-15       7.019351385668e-14       0.000000000000e+00       3.211651318736e-11       8.095311685677e-12       1.240452546152e-15 
   43       2.285031847098e-10       5.870645183972e-15       5.448782258056e-14       0.000000000000e+00       3.029967445465e-11       7.695257753309e-12       1.751036986844e-15 
   44       2.332558062326e-10       6.336107335159e-15       3.764879756228e-14       0.000000000000e+00       2.861138386031e-11       7.321355095447e-12       2.128002486750e-15 
   45       2.380492986087e-10       6.824945487902e-15       1.988406306454e-14       0.000000000000e+00       2.703302059124e-11       6.971539892400e-12       2.248283511938e-15 
   46       2.428849589980e-10       7.337559019971e-15       1.181343830545e-15       0.000000000000e+00       2.556095766238e-11       6.645246451358e-12       2.113129660043e-15 
   47       2.477637675976e-10       7.874426518152e-15      -1.854422438046e-14       0.000000000000e+00       2.419251794860e-11       6.341561011681e-12       1.766179933822e-15 
   48       2.526843605088e-10       8.436016881210e-15      -3.939491674156e-14       0.000000000000e+00       2.292043912931e-11       6.058472200205e-12       1.262813594245e-15 
   49       2.576428142998e-10       9.022788953081e-15      -6.149154449103e-14       0.000000000000e+00       2.173253852434e-11       5.792791661577e-12       6.708367010902e-16 
   50       2.626344113271e-10       9.635176850304e-15      -8.495005556311e-14       0.000000000000e+00       2.061516904136e-11       5.541069727464e-12       5.641881894726e-17 
   51       2.676600004228e-10       1.027354210014e-14      -1.098012383737e-13       0.000000000000e+00       1.956547050218e-11       5.302819575982e-12      -5.641898930376e-16 
   52       2.727209903461e-10       1.093820787684e-14      -1.360511673962e-13       0.000000000000e+00       1.858186444873e-11       5.078031038562e-12      -1.188294893601e-15 
   53       2.778174005976e-10       1.162947115654e-14      -1.637037944467e-13       0.000000000000e+00       1.766040064119e-11       4.866220278595e-12      -1.813160275316e-15 
   54       2.829477391930e-10       1.234760167725e-14      -1.927609197229e-13       0.000000000000e+00       1.679460029912e-11       4.666397247125e-12      -2.436016333860e-15 
   55       2.881098620438e-10       1.309284276488e-14      -2.232268179521e-13       0.000000000000e+00       1.597729603233e-11       4.477382315456e-12      -3.053859485189e-15 
   56       2.933040811058e-10       1.386541643413e-14      -2.551235289739e-13       0.000000000000e+00       1.520704600656e-11       4.298922840336e-12      -3.662776470635e-15 
   57       2.985306142737e-10       1.466551773309e-14      -2.884793149383e-13       0.000000000000e+00       1.448303861872e-11       4.130796973620e-12      -4.258465528016e-15 
   58       3.037885892700e-10       1.549331204192e-14      -3.233244870879e-13       0.000000000000e+00       1.380315816549e-11       3.972470259810e-12      -4.836428825207e-15 
   59       3.090759596644e-10       1.634893410559e-14      -3.596915581644e-13       0.000000000000e+00       1.316390587749e-11       3.823076696034e-12      -5.391971939076e-15 
   60       3.143894208918e-10       1.723248706648e-14      -3.976153948151e-13       0.000000000000e+00       1.256032095349e-11       3.681399792039e-12      -5.920203334402e-15 
   61       3.197256158971e-10       1.814403130487e-14      -4.371260482137e-13       0.000000000000e+00       1.198727929288e-11       3.546199477227e-12      -6.416058599181e-15 
   62       3.250852582941e-10       1.908355022145e-14      -4.782250206406e-13       0.000000000000e+00       1.144390898802e-11       3.417321415796e-12      -6.874380686138e-15 
   63       3.304697898791e-10       2.005097502282e-14      -5.209039178858e-13       0.000000000000e+00       1.093003032088e-11       3.294804213085e-12      -7.289856839598e-15 
   64       3.358801304621e-10       2.104619297088e-14      -5.651512226253e-13       0.000000000000e+00       1.044483096742e-11       3.178547731788e-12      -7.656995687640e-15 
   65       3.413166348039e-10       2.206904609204e-14      -6.109522145132e-13       0.000000000000e+00       9.986830745242e-12       3.068305125402e-12      -7.970127506528e-15 
   66       3.467790495539e-10       2.311932988662e-14      -6.582888902731e-13       0.000000000000e+00       9.553846361028e-12       2.963674871683e-12      -8.223404485137e-15 
   67       3.522664701873e-10       2.419679203801e-14      -7.071398837905e-13       0.000000000000e+00       9.142956158117e-12       2.864092806092e-12      -8.410800989387e-15 
   68       3.577778055673e-10       2.530114516587e-14      -7.574845883053e-13       0.000000000000e+00       8.751235301569e-12       2.768980610668e-12      -8.527961487733e-15 
   69       3.633133771981e-10       2.643211097124e-14      -8.093166715370e-13       0.000000000000e+00       8.378213117773e-12       2.678244026763e-12      -8.578178542580e-15 
   70       3.688735681518e-10       2.758938275875e-14      -8.626331681120e-13       0.000000000000e+00       8.023852635247e-12       2.591861745700e-12      -8.567632157765e-15 
   71       3.744583145755e-10       2.877261126945e-14      -9.174305468336e-13       0.000000000000e+00       7.687808933541e-12       2.509733991419e-12      -8.503695959890e-15 
   72       3.800670756107e-10       2.998140374923e-14      -9.737047382443e-13       0.000000000000e+00       7.369413595055e-12       2.431678555338e-12      -8.394984717506e-15 
   73       3.856988033141e-10       3.121532301732e-14      -1.031451162189e-12       0.000000000000e+00       7.067659156851e-12       2.357426831224e-12      -8.251401860307e-15 
   74       3.913519125771e-10       3.247388653471e-14      -1.090664755376e-12       0.000000000000e+00       6.781183562471e-12       2.286619850063e-12      -8.084186998313e-15 
   75       3.970242510466e-10       3.375656547267e-14      -1.151339998941e-12       0.000000000000e+00       6.508254613748e-12       2.218804314925e-12      -7.905963441060e-15 
   76       4.027138476409e-10       3.506281712544e-14      -1.213467985628e-12       0.000000000000e+00       6.247175516799e-12       2.153540882286e-12      -7.728401408491e-15 
   77       4.084213821732e-10       3.639219103155e-14      -1.277026942970e-12       0.000000000000e+00       5.997621267756e-12       2.090760567082e-12      -7.554610665612e-15 
   78       4.141481135194e-10       3.774424060171e-14      -1.341990024011e-12       0.000000000000e+00       5.759518847720e-12       2.030466427942e-12      -7.385440535716e-15 
   79       4.198951270882e-10       3.911849124757e-14      -1.408328081771e-12       0.000000000000e+00       5.532640946388e-12       1.972625449937e-12      -7.221739790400e-15 
   80       4.256633207066e-10       4.051444013387e-14      -1.476009636101e-12       0.000000000000e+00       5.316599048744e-12       1.917166881152e-12      -7.064355276578e-15 
   81       4.314533905063e-10       4.193155593071e-14      -1.545000840544e-12       0.000000000000e+00       5.110836521753e-12       1.863980569254e-12      -6.914130543498e-15 
   82       4.372658168091e-10       4.336927856573e-14      -1.615265449189e-12       0.000000000000e+00       4.914621701049e-12       1.812915298070e-12      -6.771904469754e-15 
   83       4.431008500132e-10       4.482701897631e-14      -1.686764783532e-12       0.000000000000e+00       4.727040977633e-12       1.763777124156e-12      -6.638509890304e-15 
   84       4.489585812209e-10       4.630414821500e-14      -1.759460493419e-12       0.000000000000e+00       4.547206357675e-12       1.716376123249e-12      -6.514570795581e-15 
   85       4.548391984928e-10       4.779996323317e-14      -1.833323438381e-12       0.000000000000e+00       4.374932820576e-12       1.670679177389e-12      -6.399858307573e-15 
   86       4.607427473948e-10       4.931371494435e-14      -1.908326224715e-12       0.000000000000e+00       4.210161099420e-12       1.626679584619e-12      -6.293824924516e-15 
   87       4.666690375309e-10       5.084461794625e-14      -1.984440555922e-12       0.000000000000e+00       4.052749931914e-12       1.584350063846e-12      -6.195791767928e-15 
   88       4.726176298528e-10       5.239185009404e-14      -2.061637246517e-12       0.000000000000e+00       3.902472751670e-12       1.543641905023e-12      -6.104943824288e-15 
   89       4.785878239702e-10       5.395455207363e-14      -2.139886235852e-12       0.000000000000e+00       3.759014379492e-12       1.504484119332e-12      -6.020325186700e-15 
   90       4.845786454611e-10       5.553182697498e-14      -2.219156601928e-12       0.000000000000e+00       3.621967714653e-12       1.466782589371e-12      -5.940834296574e-15 
   91       4.905888331813e-10       5.712273986531e-14      -2.299416575218e-12       0.000000000000e+00       3.490830426178e-12       1.430419219337e-12      -5.865219185292e-15 
   92       4.966168265754e-10       5.872631736241e-14      -2.380633552475e-12       0.000000000000e+00       3.365001644132e-12       1.395251085207e-12      -5.792072715881e-15 
   93       5.026612013574e-10       6.034157197883e-14      -2.462773599432e-12       0.000000000000e+00       3.243915774668e-12       1.361145401920e-12      -5.720154702140e-15 
   94       5.087220790750e-10       6.196758026946e-14      -2.545799843296e-12       0.000000000000e+00       3.127474153827e-12       1.328092286600e-12      -5.649424019628e-15 
   95       5.147999070679e-10       6.360341570302e-14      -2.629673862904e-12       0.000000000000e+00       3.015672499094e-12       1.296107462620e-12      -5.580153648862e-15 
   96       5.208950225390e-10       6.524812485295e-14      -2.714356185017e-12       0.000000000000e+00       2.908468162865e-12       1.265197600375e-12      -5.512617361426e-15 
   97       5.270076460188e-10       6.690072731066e-14      -2.799806291117e-12       0.000000000000e+00       2.805778706009e-12       1.235359959121e-12      -5.447089448636e-15 
   98       5.331378748304e-10       6.856021559884e-14      -2.885982624214e-12       0.000000000000e+00       2.707480471416e-12       1.206582028815e-12      -5.383844450208e-15 
   99       5.392856765543e-10       7.022555508477e-14      -2.972842595640e-12       0.000000000000e+00       2.613407157567e-12       1.178841171953e-12      -5.323156882920e-15 
  100       5.454508824933e-10       7.189568389362e-14      -3.060342591855e-12       0.000000000000e+00       2.523348392081e-12       1.152104265403e-12      -5.265300969281e-15 
  101       5.516331811370e-10       7.356951282173e-14      -3.148437981248e-12       0.000000000000e+00       2.437048305281e-12       1.126327342250e-12      -5.210550366195e-15 
  102       5.578321116274e-10       7.524592524996e-14      -3.237083120931e-12       0.000000000000e+00       2.354204103747e-12       1.101455233629e-12      -5.159177893625e-15 
  103       5.640470572228e-10       7.692377705693e-14      -3.326231363547e-12       0.000000000000e+00       2.274464643874e-12       1.077421210563e-12      -5.111455263262e-15 
  104       5.702774241614e-10       7.860191868161e-14      -3.415835398441e-12       0.000000000000e+00       2.197505288067e-12       1.054161252893e-12      -5.067553565914e-15 
  105       5.765232198428e-10       8.027926489196e-14      -3.505848313003e-12       0.000000000000e+00       2.123267061987e-12       1.031659822697e-12      -5.027230008477e-15 
  106       5.827845409301e-10       8.195473432320e-14      -3.596222688046e-12       0.000000000000e+00       2.051747295062e-12       1.009909635258e-12      -4.990098156853e-15 
  107       5.890613904836e-10       8.362722832506e-14      -3.686910286581e-12       0.000000000000e+00       1.982925641717e-12       9.888973890972e-13      -4.955722052877e-15 
