# dimensionless total [l(l+1)/2pi] C_l's
# for l=2 to 3000, i.e. number of multipoles equal to 2999
#
# -> if you prefer output in CAMB/HealPix/LensPix units/order, set 'format' to 'camb' in input file
# -> if you don't want to see such a header, set 'headers' to 'no' in input file
# -> for CMB lensing (phi), these are C_l^phi-phi for the lensing potential.
#    Remember the conversion factors:
#    C_l^dd (deflection) = l(l+1) C_l^phi-phi
#    C_l^gg (shear/convergence) = 1/4 (l(l+1))^2 C_l^phi-phi
#
# 1:l     2:TT                     3:EE                     4:TE                     5:BB                     6:phiphi                 7:TPhi                   8:Ephi               
    2       2.844832924176e-10       9.329365547076e-15       5.609258077436e-13       5.640238104263e-15       8.360775370094e-09       4.607628463120e-10      -2.239664117299e-12 
    3       2.428464065382e-10       1.323924585544e-14       4.655061316305e-13       6.049229318214e-15       5.181601761528e-09       3.280860911218e-10      -1.885302128983e-12 
    4       2.234889880762e-10       1.390286426886e-14       4.094259570765e-13       5.595667406122e-15       3.605663793455e-09       2.491856373460e-10      -1.427738913101e-12 
    5       2.124136395222e-10       1.183558013771e-14       3.531462500091e-13       4.658937277202e-15       2.689765024371e-09       1.972901791430e-10      -9.917732606438e-13 
    6       2.049844033967e-10       8.572445499709e-15       2.940026382956e-13       3.581882314359e-15       2.098879636856e-09       1.608087733166e-10      -6.185379348247e-13 
    7       2.000034883741e-10       5.503383285518e-15       2.373278797519e-13       2.595335294716e-15       1.692325684920e-09       1.339750509495e-10      -3.250085004228e-13 
    8       1.966800857951e-10       3.342669977455e-15       1.871364671374e-13       1.814905704701e-15       1.398802110200e-09       1.135390031473e-10      -1.139815719635e-13 
    9       1.945428041630e-10       2.157421576765e-15       1.460405013245e-13       1.270226723528e-15       1.178300821505e-09       9.755876693498e-11       2.075745109592e-14 
   10       1.932708099899e-10       1.660500984618e-15       1.152373630348e-13       9.397730422609e-16       1.007473327576e-09       8.481937533913e-11       9.134738304944e-14 
   11       1.926136092339e-10       1.510497214588e-15       9.471859968781e-14       7.792683412779e-16       8.476318074829e-10       7.472502959253e-11       1.127075032347e-13 
   12       1.923561789699e-10       1.480488643570e-15       8.343497659490e-14       7.404344387968e-16       7.405311412274e-10       6.621549472352e-11       1.020459543066e-13 
   13       1.924864251387e-10       1.483388772052e-15       7.943611084914e-14       7.815699501393e-16       6.526226345669e-10       5.889823914697e-11       7.276616785830e-14 
   14       1.928525435141e-10       1.517163897145e-15       8.034809138883e-14       8.711234493214e-16       5.794906636129e-10       5.289565849075e-11       3.738783838907e-14 
   15       1.933883075603e-10       1.599711198148e-15       8.397416538676e-14       9.879891981391e-16       5.179492179703e-10       4.786809524083e-11       4.300188079924e-15 
   16       1.941061842367e-10       1.734141576426e-15       8.844559847929e-14       1.119435394728e-15       4.656324182052e-10       4.340612443570e-11      -2.159981147905e-14 
   17       1.949182168764e-10       1.906685554136e-15       9.239210742941e-14       1.258705003773e-15       4.207561578066e-10       3.951567588725e-11      -3.788318932005e-14 
   18       1.958086004865e-10       2.099175818660e-15       9.511570702225e-14       1.402697745822e-15       3.818090975588e-10       3.612359767892e-11      -4.474358091236e-14 
   19       1.968122505181e-10       2.306626057809e-15       9.644108743272e-14       1.550408975899e-15       3.481749810637e-10       3.318204954240e-11      -4.375287700243e-14 
   20       1.978698524071e-10       2.528965267526e-15       9.639853271318e-14       1.701394167669e-15       3.185549283881e-10       3.058797259603e-11      -3.764871889222e-14 
   21       1.989901845652e-10       2.773650384863e-15       9.533285248364e-14       1.855528740978e-15       2.924829050527e-10       2.828016787183e-11      -2.883732574248e-14 
   22       2.001477844462e-10       3.050376839099e-15       9.374777581222e-14       2.012891228130e-15       2.693347635646e-10       2.617964218459e-11      -1.992333505141e-14 
   23       2.013488696072e-10       3.361216311536e-15       9.195806207569e-14       2.173376610496e-15       2.487916642422e-10       2.429102002216e-11      -1.240596119449e-14 
   24       2.025723314511e-10       3.704892913482e-15       9.020598274241e-14       2.336890271420e-15       2.303779248826e-10       2.261971645365e-11      -7.367786901977e-15 
   25       2.038272706556e-10       4.079163503008e-15       8.855339771362e-14       2.503360624557e-15       2.138763604126e-10       2.113777360719e-11      -4.972974807166e-15 
   26       2.051049681101e-10       4.481187812558e-15       8.694077682669e-14       2.672756501726e-15       1.989878694397e-10       1.979143698101e-11      -4.914793587997e-15 
   27       2.064088538218e-10       4.910503007616e-15       8.511055484485e-14       2.844957267619e-15       1.855343766347e-10       1.855632029796e-11      -6.540014953397e-15 
   28       2.077287754253e-10       5.367217600103e-15       8.270952809513e-14       3.019826503764e-15       1.732846401036e-10       1.741054623254e-11      -8.989334089817e-15 
   29       2.090793500271e-10       5.851473128717e-15       7.949196980730e-14       3.197175474500e-15       1.621757878882e-10       1.635675151862e-11      -1.168246820579e-14 
   30       2.104604093843e-10       6.363261247948e-15       7.520416219461e-14       3.376810839769e-15       1.520877389863e-10       1.539753821321e-11      -1.401060321521e-14 
   31       2.118525288105e-10       6.902586006656e-15       6.958306723152e-14       3.558542138505e-15       1.428139014282e-10       1.452677250777e-11      -1.536337766931e-14 
   32       2.132636907596e-10       7.470323331723e-15       6.252554696378e-14       3.742137150632e-15       1.343064705651e-10       1.373625541636e-11      -1.568685310033e-14 
   33       2.146952720473e-10       8.067689238206e-15       5.398221293710e-14       3.927349717743e-15       1.265057042609e-10       1.300973554028e-11      -1.513860753932e-14 
   34       2.161364770801e-10       8.696006029854e-15       4.393451336606e-14       4.113931379308e-15       1.193028316820e-10       1.232687121317e-11      -1.394354247945e-14 
   35       2.175956542037e-10       9.356628806012e-15       3.246347919090e-14       4.301633017333e-15       1.126609066721e-10       1.168653383492e-11      -1.237183239418e-14 
   36       2.190768465830e-10       1.005100621592e-14       1.970915948756e-14       4.490203233777e-15       1.065263750750e-10       1.109078629675e-11      -1.076293206988e-14 
   37       2.205753207529e-10       1.078049007159e-14       5.816046659578e-15       4.679399335162e-15       1.008191214806e-10       1.053902109962e-11      -9.457001861420e-15 
   38       2.220959584002e-10       1.154559118839e-14      -9.202080905572e-15       4.869027593329e-15       9.552437606720e-11       1.003008138924e-11      -8.520727507597e-15 
   39       2.236387679621e-10       1.234646933015e-14      -2.537043078292e-14       5.058916856948e-15       9.062539257514e-11       9.560318808446e-12      -7.932730105703e-15 
   40       2.251925270792e-10       1.318311797566e-14      -4.271757435834e-14       5.248908644537e-15       8.607550157505e-11       9.122656123540e-12      -7.655325226590e-15 
   41       2.267422227149e-10       1.405551056069e-14      -6.128316435884e-14       5.438829758122e-15       8.181437114223e-11       8.708895052945e-12      -7.632769699408e-15 
   42       2.282969773067e-10       1.496412356953e-14      -8.114303328556e-14       5.628397791659e-15       7.782943051356e-11       8.318237000196e-12      -7.788430244281e-15 
   43       2.298693280564e-10       1.590956474609e-14      -1.023930185370e-13       5.817285989922e-15       7.411004811974e-11       7.951050403333e-12      -8.024512323186e-15 
   44       2.314669292377e-10       1.689242983188e-14      -1.251433275549e-13       6.005147413843e-15       7.062909708211e-11       7.606405676422e-12      -8.221135184333e-15 
   45       2.330932281121e-10       1.791322256350e-14      -1.494939732408e-13       6.191640338701e-15       6.735263767734e-11       7.282606689270e-12      -8.266216558868e-15 
   46       2.347509892417e-10       1.897208723924e-14      -1.754501020875e-13       6.376516466308e-15       6.427551044800e-11       6.979234026451e-12      -8.158893753700e-15 
   47       2.364389174593e-10       2.006899540977e-14      -2.029829555067e-13       6.559556945945e-15       6.139415073022e-11       6.695525374946e-12      -7.934774321067e-15 
   48       2.381500894185e-10       2.120381356016e-14      -2.320526662358e-13       6.740548278824e-15       5.869585505997e-11       6.429715811044e-12      -7.637878418520e-15 
   49       2.398714903856e-10       2.237629806442e-14      -2.626077317368e-13       6.919282595836e-15       5.615810150495e-11       6.178964692335e-12      -7.321114979687e-15 
   50       2.415896925043e-10       2.358615914408e-14      -2.945944040661e-13       7.095548902772e-15       5.375533377182e-11       5.940207061501e-12      -7.036236300049e-15 
   51       2.433107812717e-10       2.483328491616e-14      -3.279890859515e-13       7.269103370121e-15       5.148306127205e-11       5.713149917436e-12      -6.799382545499e-15 
   52       2.450450371966e-10       2.611756943909e-14      -3.627738180032e-13       7.439691458866e-15       4.933912589859e-11       5.497962876390e-12      -6.617007780487e-15 
   53       2.468010969974e-10       2.743884726838e-14      -3.989270722851e-13       7.607056104346e-15       4.731648935924e-11       5.294395844241e-12      -6.495565620259e-15 
   54       2.485857794051e-10       2.879689165837e-14      -4.364236923721e-13       7.770937568930e-15       4.540290474507e-11       5.101749414924e-12      -6.441490268215e-15 
   55       2.504040147726e-10       3.019141847369e-14      -4.752418651059e-13       7.931090502852e-15       4.358465094036e-11       4.919115283169e-12      -6.458573120562e-15 
   56       2.522590124930e-10       3.162210318096e-14      -5.153862013336e-13       8.087340427326e-15       4.185957463291e-11       4.746235235428e-12      -6.539372852411e-15 
   57       2.541518300518e-10       3.308856492844e-14      -5.568702839250e-13       8.239541025010e-15       4.022671294536e-11       4.582803701269e-12      -6.671638198107e-15 
   58       2.560811064149e-10       3.459035966475e-14      -5.997103477910e-13       8.387558672974e-15       3.868234801946e-11       4.428197768955e-12      -6.840607610173e-15 
   59       2.580428918761e-10       3.612697856307e-14      -6.439254939029e-13       8.531272965832e-15       3.721983687694e-11       4.281458103922e-12      -7.028888825273e-15 
   60       2.600304779043e-10       3.769784644540e-14      -6.895379033114e-13       8.670577238869e-15       3.582944128054e-11       4.141269867243e-12      -7.216338430165e-15 
   61       2.620371247735e-10       3.930234670466e-14      -7.365664247520e-13       8.805374379744e-15       3.450103163000e-11       4.006321148629e-12      -7.384836102126e-15 
   62       2.640653448334e-10       4.093990617291e-14      -7.850051713449e-13       8.935561981535e-15       3.323329277367e-11       3.876515448653e-12      -7.534132047340e-15 
   63       2.661194105122e-10       4.260992659317e-14      -8.348404776114e-13       9.061044770273e-15       3.202629202926e-11       3.751998729233e-12      -7.669359166229e-15 
   64       2.682025637470e-10       4.431175908205e-14      -8.860571056502e-13       9.181739388542e-15       3.087871010243e-11       3.632798951981e-12      -7.796486446305e-15 
   65       2.703169377757e-10       4.604470339472e-14      -9.386382489052e-13       9.297574769123e-15       2.978776213867e-11       3.518818974920e-12      -7.922353832448e-15 
   66       2.724634789285e-10       4.780800718992e-14      -9.925655359334e-13       9.408492508630e-15       2.874911877527e-11       3.409829449212e-12      -8.054707097180e-15 
   67       2.746418684194e-10       4.960086529491e-14      -1.047819034173e-12       9.514447241155e-15       2.775682719317e-11       3.305461715877e-12      -8.202232710942e-15 
   68       2.768514877979e-10       5.142240102667e-14      -1.104377084286e-12       9.615399057882e-15       2.680490070366e-11       3.205323224721e-12      -8.371992079946e-15 
   69       2.790947172861e-10       5.327160740331e-14      -1.162215755773e-12       9.711288147123e-15       2.589263800090e-11       3.109386826404e-12      -8.561042605642e-15 
   70       2.813741683457e-10       5.514739264541e-14      -1.221309287315e-12       9.802055663301e-15       2.502024485646e-11       3.017667962992e-12      -8.763173673090e-15 
   71       2.836916485587e-10       5.704859589331e-14      -1.281630245885e-12       9.887651393473e-15       2.418722532537e-11       2.930105226544e-12      -8.971325988564e-15 
   72       2.860481101115e-10       5.897398601318e-14      -1.343149526182e-12       9.968033927546e-15       2.339234547157e-11       2.846556389401e-12      -9.177559937487e-15 
   73       2.884435982789e-10       6.092226040307e-14      -1.405836350064e-12       1.004317082849e-14       2.263359709339e-11       2.766794434468e-12      -9.373023942374e-15 
   74       2.908771999072e-10       6.289204379903e-14      -1.469658265987e-12       1.011303880253e-14       2.190816144890e-11       2.690503585496e-12      -9.547922820767e-15 
   75       2.933469918986e-10       6.488188708110e-14      -1.534581148438e-12       1.017762386942e-14       2.121237298142e-11       2.617275337369e-12      -9.691486143174e-15 
   76       2.958510676788e-10       6.689030396386e-14      -1.600570990728e-12       1.023691800803e-14       2.054262908982e-11       2.546707986137e-12      -9.794272196843e-15 
   77       2.983909465778e-10       6.891589143147e-14      -1.667599662051e-12       1.029090801104e-14       1.989839115599e-11       2.478734947990e-12      -9.855634867702e-15 
   78       3.009686954600e-10       7.095722919743e-14      -1.735640204106e-12       1.033958489765e-14       1.927966740821e-11       2.413349376816e-12      -9.877567219217e-15 
   79       3.035858769595e-10       7.301284335812e-14      -1.804665166492e-12       1.038294735422e-14       1.868609882293e-11       2.350504158320e-12      -9.862502669934e-15 
   80       3.062435200691e-10       7.508120597573e-14      -1.874646642920e-12       1.042100183216e-14       1.811694224962e-11       2.290110062652e-12      -9.813331244905e-15 
   81       3.089420907285e-10       7.716073466118e-14      -1.945556307422e-12       1.045376264590e-14       1.757105353567e-11       2.232033897040e-12      -9.733415827115e-15 
   82       3.116814624135e-10       7.924979215700e-14      -2.017365450558e-12       1.048125207084e-14       1.704687065116e-11       2.176096658413e-12      -9.626608408913e-15 
   83       3.144608867242e-10       8.134668592031e-14      -2.090045015627e-12       1.050350044126e-14       1.654239681377e-11       2.122071686038e-12      -9.497266343435e-15 
   84       3.172795503930e-10       8.344970267824e-14      -2.163563344269e-12       1.052054438552e-14       1.605568576980e-11       2.069741887731e-12      -9.349851528809e-15 
   85       3.201384168275e-10       8.555721959007e-14      -2.237878904541e-12       1.053242098099e-14       1.558642703626e-11       2.019086365358e-12      -9.187616016516e-15 
   86       3.230386373516e-10       8.766761083443e-14      -2.312946418090e-12       1.053917280518e-14       1.513459374049e-11       1.970121484678e-12      -9.013727287809e-15 
   87       3.259809726630e-10       8.977921444337e-14      -2.388719041326e-12       1.054084977801e-14       1.469995551860e-11       1.922843710604e-12      -8.831675052962e-15 
   88       3.289657732777e-10       9.189033247306e-14      -2.465148363127e-12       1.053750922842e-14       1.428207007999e-11       1.877228752670e-12      -8.645280493167e-15 
   89       3.319929599746e-10       9.399923117448e-14      -2.542184402556e-12       1.052921596101e-14       1.388027477176e-11       1.833230710490e-12      -8.458705502425e-15 
   90       3.350620042399e-10       9.610414116410e-14      -2.619775606569e-12       1.051604232269e-14       1.349367814315e-11       1.790781219226e-12      -8.276461929447e-15 
   91       3.381719087114e-10       9.820325759461e-14      -2.697868847729e-12       1.049806826930e-14       1.312115151003e-11       1.749788595046e-12      -8.103420819539e-15 
   92       3.413211876234e-10       1.002947403256e-13      -2.776409421915e-12       1.047538143221e-14       1.276132051931e-11       1.710136980592e-12      -7.944821656506e-15 
   93       3.445084387304e-10       1.023767358821e-13      -2.855342232823e-12       1.044807215736e-14       1.241289119614e-11       1.671714613642e-12      -7.805079216006e-15 
   94       3.477341999511e-10       1.044474467387e-13      -2.934615554210e-12       1.041621762386e-14       1.207570250187e-11       1.634505352625e-12      -7.683978779304e-15 
   95       3.509993371070e-10       1.065050728197e-13      -3.014177831894e-12       1.037989544888e-14       1.174981722103e-11       1.598509400654e-12      -7.579923104072e-15 
   96       3.543044660404e-10       1.085477911032e-13      -3.093976561198e-12       1.033918850014e-14       1.143519779115e-11       1.563714960169e-12      -7.491076659435e-15 
   97       3.576499411780e-10       1.105737560910e-13      -3.173958300952e-12       1.029418489354e-14       1.113170245865e-11       1.530097778177e-12      -7.415358362880e-15 
   98       3.610358440947e-10       1.125811002783e-13      -3.254068687498e-12       1.024497799074e-14       1.083908143471e-11       1.497620691484e-12      -7.350434317155e-15 
   99       3.644619720771e-10       1.145679346233e-13      -3.334252448688e-12       1.019166639684e-14       1.055697305102e-11       1.466233171924e-12      -7.293710547177e-15 
  100       3.679278266868e-10       1.165323490172e-13      -3.414453417892e-12       1.013435395795e-14       1.028489991570e-11       1.435870871593e-12      -7.242325736937e-15 
  101       3.714326023248e-10       1.184724127540e-13      -3.494614547996e-12       1.007314975882e-14       1.002226506912e-11       1.406455168085e-12      -7.193143966398e-15 
  102       3.749751747943e-10       1.203861749998e-13      -3.574677925405e-12       1.000816812047e-14       9.768348139692e-12       1.377892709720e-12      -7.142747448408e-15 
  103       3.785540898649e-10       1.222716652634e-13      -3.654584784047e-12       9.939528597800e-15       9.522301499787e-12       1.350074960779e-12      -7.087429265595e-15 
  104       3.821679581551e-10       1.241269441428e-13      -3.734275778938e-12       9.867351827164e-15       9.283342418817e-12       1.322903588717e-12      -7.024016342972e-15 
  105       3.858167251650e-10       1.259502623628e-13      -3.813691818805e-12       9.791746435321e-15       9.051367364428e-12       1.296371511033e-12      -6.952480620482e-15 
  106       3.895005522846e-10       1.277399241974e-13      -3.892773372566e-12       9.712820349400e-15       8.826413904159e-12       1.270491999801e-12      -6.873668713382e-15 
  107       3.932194189075e-10       1.294942401203e-13      -3.971460236464e-12       9.630684741629e-15       8.608470448461e-12       1.245273648623e-12      -6.788505012893e-15 
