# Matter power spectrum P(k) at redshift z=0
# for k=1.04783e-05 to 106.477 h/Mpc,
# number of wavenumbers equal to 622
#    1:k (h/Mpc)              2:P (Mpc/h)^3        
       1.047825021619e-05       4.996559449685e+01 
       2.343794199312e-05       1.083867199694e+02 
       3.644367066324e-05       1.657167302637e+02 
       4.953085910902e-05       2.226029464687e+02 
       6.273552237403e-05       2.794100239969e+02 
       7.609459272162e-05       3.364091770698e+02 
       8.964625519788e-05       3.938310713483e+02 
       1.034302982125e-04       4.518873897700e+02 
       1.174884836857e-04       5.107818786727e+02 
       1.318649413429e-04       5.707169900383e+02 
       1.466065917440e-04       6.318984731543e+02 
       1.617636025641e-04       6.944617425376e+02 
       1.773898824500e-04       7.587683678876e+02 
       1.935436163708e-04       8.249895982472e+02 
       2.102878456686e-04       8.933755471366e+02 
       2.276910948485e-04       9.641941214761e+02 
       2.458280453438e-04       1.037733591755e+03 
       2.647802538195e-04       1.114305185051e+03 
       2.846369087365e-04       1.194245675379e+03 
       3.054956135381e-04       1.277919911107e+03 
       3.274631775372e-04       1.365723211146e+03 
       3.506563859363e-04       1.458083489882e+03 
       3.752027080307e-04       1.555462957456e+03 
       4.012408872633e-04       1.658359124515e+03 
       4.289213384983e-04       1.767304840291e+03 
       4.584062573179e-04       1.882866973251e+03 
       4.898693248886e-04       2.005643284159e+03 
       5.234948729042e-04       2.136256998781e+03 
       5.594763609147e-04       2.275348598532e+03 
       5.980140194561e-04       2.423564270081e+03 
       6.393115348484e-04       2.581540800616e+03 
       6.835717036344e-04       2.749886734610e+03 
       7.309910726779e-04       2.929160105455e+03 
       7.817537055470e-04       3.119843568171e+03 
       8.360243679255e-04       3.322318317016e+03 
       8.939415828171e-04       3.536838633496e+03 
       9.556111366399e-04       3.763509600376e+03 
       1.021100680625e-03       4.002270360770e+03 
       1.090436034954e-03       4.252885126706e+03 
       1.163599652760e-03       4.514943645038e+03 
       1.240531454790e-03       4.787871295057e+03 
       1.321131950357e-03       5.070948401350e+03 
       1.405267280218e-03       5.363313597452e+03 
       1.492775612116e-03       5.664043143463e+03 
       1.583474226069e-03       5.972169395604e+03 
       1.677166647844e-03       6.286682453500e+03 
       1.773649300224e-03       6.606573560243e+03 
       1.872717302458e-03       6.930857861833e+03 
       1.974169217792e-03       7.258591997687e+03 
       2.077810696797e-03       7.588887068020e+03 
       2.183457074155e-03       7.920917766907e+03 
       2.290935045269e-03       8.253924721859e+03 
       2.400083581612e-03       8.587219488301e+03 
       2.510754249390e-03       8.920179818030e+03 
       2.622811084300e-03       9.252249666577e+03 
       2.736130154201e-03       9.582934091589e+03 
       2.850598917232e-03       9.911796136544e+03 
       2.966115459180e-03       1.023844985025e+04 
       3.082587672737e-03       1.056255919392e+04 
       3.199932423613e-03       1.088382993155e+04 
       3.318074734348e-03       1.120200462607e+04 
       3.436947005831e-03       1.151686692731e+04 
       3.556488288482e-03       1.182822261220e+04 
       3.676643609232e-03       1.213590977648e+04 
       3.797363356405e-03       1.243979124859e+04 
       3.918602721864e-03       1.273974710939e+04 
       4.040321198061e-03       1.303568115020e+04 
       4.162482126580e-03       1.332750930012e+04 
       4.285052294220e-03       1.361516825612e+04 
       4.408001572485e-03       1.389859858431e+04 
       4.531302596330e-03       1.417776519352e+04 
       4.654930478211e-03       1.445263429240e+04 
       4.778862553709e-03       1.472315483349e+04 
       4.903078155291e-03       1.498935675162e+04 
       5.027558411092e-03       1.525121728080e+04 
       5.152286065884e-03       1.550872178413e+04 
       5.277245321706e-03       1.576190536304e+04 
       5.402421695891e-03       1.601080986314e+04 
       5.527801894504e-03       1.625538270333e+04 
       5.653373699384e-03       1.649564028791e+04 
       5.779125867261e-03       1.673109020930e+04 
       5.905048039522e-03       1.696278584560e+04 
       6.031130661443e-03       1.719026018317e+04 
       6.157364909789e-03       1.741348700665e+04 
       6.283742627834e-03       1.763256156074e+04 
       6.410256266992e-03       1.784749727577e+04 
       6.536898834291e-03       1.805815329417e+04 
       6.663663845073e-03       1.826495087955e+04 
       6.790545280323e-03       1.846764085513e+04 
       6.917537548149e-03       1.866688905332e+04 
       7.044635448948e-03       1.886161733911e+04 
       7.171834143873e-03       1.905263277714e+04 
       7.299129126258e-03       1.923985684923e+04 
       7.426516195686e-03       1.942308821726e+04 
       7.553991434426e-03       1.960253766247e+04 
       7.681551186009e-03       1.977804195637e+04 
       7.809192035713e-03       1.995003382715e+04 
       7.936910792773e-03       2.011812474305e+04 
       8.064704474151e-03       2.028270137462e+04 
       8.192570289696e-03       2.044355938502e+04 
       8.320505628588e-03       2.060169870114e+04 
       8.448508046912e-03       2.075553654319e+04 
       8.576575256278e-03       2.090590601797e+04 
       8.704705113379e-03       2.105277591959e+04 
       8.832895610408e-03       2.119627208447e+04 
       8.961144866240e-03       2.133643907999e+04 
       9.089451118330e-03       2.147321852297e+04 
       9.217812715251e-03       2.160658993235e+04 
       9.346228109811e-03       2.173679975393e+04 
       9.474695852719e-03       2.186380072709e+04 
       9.603214586725e-03       2.198759507912e+04 
       9.731783041215e-03       2.210825494857e+04 
       9.860400027212e-03       2.222488701709e+04 
       9.989064432756e-03       2.234016902421e+04 
       1.011777521862e-02       2.245080790193e+04 
       1.024653141436e-02       2.256001670402e+04 
       1.037533211462e-02       2.266537081101e+04 
       1.050417647576e-02       2.276784227374e+04 
       1.063306371264e-02       2.286740800540e+04 
       1.076199309577e-02       2.296332081768e+04 
       1.089096394852e-02       2.305797960349e+04 
       1.101997564462e-02       2.314915702214e+04 
       1.114902760579e-02       2.323739937870e+04 
       1.127811929959e-02       2.332289190579e+04 
       1.140725023735e-02       2.340496597118e+04 
       1.153641997234e-02       2.348595255865e+04 
       1.166562809792e-02       2.356267285257e+04 
       1.179487424601e-02       2.363850220349e+04 
       1.192415808549e-02       2.371088428688e+04 
       1.205347932085e-02       2.377996245836e+04 
       1.218283769081e-02       2.384802958750e+04 
       1.231223296716e-02       2.391281357140e+04 
       1.244166495360e-02       2.397536761111e+04 
       1.257113348468e-02       2.403525133819e+04 
       1.270063842482e-02       2.409275466775e+04 
       1.283017966742e-02       2.414799956339e+04 
       1.295975713400e-02       2.420100259981e+04 
       1.308937077343e-02       2.425147658047e+04 
       1.321902056121e-02       2.429889734825e+04 
       1.334870649878e-02       2.434591602810e+04 
       1.347842861295e-02       2.438876766328e+04 
       1.360818695531e-02       2.443138808201e+04 
       1.373798160168e-02       2.446996150070e+04 
       1.386781265170e-02       2.450697460019e+04 
       1.399768022835e-02       2.454224171580e+04 
       1.412758447755e-02       2.457646502592e+04 
       1.425752556784e-02       2.460643640673e+04 
       1.438750369001e-02       2.463647434146e+04 
       1.451751905686e-02       2.466282322890e+04 
       1.464757190290e-02       2.468803186832e+04 
       1.477766248414e-02       2.471071465751e+04 
       1.490779107789e-02       2.473245993530e+04 
       1.503795798261e-02       2.475121176423e+04 
       1.516816351773e-02       2.476980264598e+04 
       1.529840802355e-02       2.478528427841e+04 
       1.542869186115e-02       2.479815751406e+04 
       1.555901541234e-02       2.481003696508e+04 
       1.568937907958e-02       2.482027067648e+04 
       1.581978328595e-02       2.482869924385e+04 
       1.595022847519e-02       2.483565341288e+04 
       1.608071511169e-02       2.484013030337e+04 
       1.621124368054e-02       2.484353456560e+04 
       1.634181468757e-02       2.484512118701e+04 
       1.647242865946e-02       2.484626357052e+04 
       1.660308614380e-02       2.484361207449e+04 
       1.673378770924e-02       2.484035064288e+04 
       1.686453394560e-02       2.483563734679e+04 
       1.699532546402e-02       2.482949465169e+04 
       1.712616289717e-02       2.482277242973e+04 
       1.725704689936e-02       2.481231524685e+04 
       1.738797814682e-02       2.480150378808e+04 
       1.751895733789e-02       2.478930021507e+04 
       1.764998519323e-02       2.477644777769e+04 
       1.778106245613e-02       2.476043391537e+04 
       1.791218989272e-02       2.474489083583e+04 
       1.804336829232e-02       2.472605718225e+04 
       1.817459846769e-02       2.470762789030e+04 
       1.830588125539e-02       2.468701102422e+04 
       1.843721751609e-02       2.466431598539e+04 
       1.856860813494e-02       2.464120756989e+04 
       1.870005402192e-02       2.461674355387e+04 
       1.883155611228e-02       2.459103696317e+04 
       1.896311536687e-02       2.456410750265e+04 
       1.909473277263e-02       2.453600981968e+04 
       1.922640934299e-02       2.450673943938e+04 
       1.935814611835e-02       2.447637051950e+04 
       1.948994416652e-02       2.444543935031e+04 
       1.962180458326e-02       2.441227686700e+04 
       1.975372849277e-02       2.437842421146e+04 
       1.988571704821e-02       2.434310352966e+04 
       2.001777143227e-02       2.430723498683e+04 
       2.014989285773e-02       2.427001006654e+04 
       2.028208256804e-02       2.423174903398e+04 
       2.041434183795e-02       2.419251472120e+04 
       2.054667197413e-02       2.415223445881e+04 
       2.067907431580e-02       2.411111704719e+04 
       2.081155023545e-02       2.406974562484e+04 
       2.094410113948e-02       2.402594251244e+04 
       2.107672846898e-02       2.398210456473e+04 
       2.120943370039e-02       2.393731757977e+04 
       2.134221834634e-02       2.389188300699e+04 
       2.147508395641e-02       2.384446682862e+04 
       2.160803211792e-02       2.379724059507e+04 
       2.174106445681e-02       2.374881671934e+04 
       2.187418263849e-02       2.369986327191e+04 
       2.200738836870e-02       2.364944675120e+04 
       2.214068339451e-02       2.359830900580e+04 
       2.227406950518e-02       2.354668217292e+04 
       2.240754853321e-02       2.349457771954e+04 
       2.254112235530e-02       2.344128249605e+04 
       2.267479289344e-02       2.338783638739e+04 
       2.280856211593e-02       2.333261695540e+04 
       2.294243203855e-02       2.327729060621e+04 
       2.307640472564e-02       2.322146252762e+04 
       2.321048229134e-02       2.316491119278e+04 
       2.334466690073e-02       2.310709946707e+04 
       2.347896077117e-02       2.304908201604e+04 
       2.361336617354e-02       2.299047144806e+04 
       2.374788543358e-02       2.293114522080e+04 
       2.388252093326e-02       2.287121980536e+04 
       2.401727511225e-02       2.281086601902e+04 
       2.415215046930e-02       2.275028503943e+04 
       2.428714956383e-02       2.268820994679e+04 
       2.442227501746e-02       2.262620371575e+04 
       2.455752951561e-02       2.256341287733e+04 
       2.469291580917e-02       2.250028182546e+04 
       2.482843671625e-02       2.243656949360e+04 
       2.496409512388e-02       2.237233280726e+04 
       2.509989398993e-02       2.230765648577e+04 
       2.523583634493e-02       2.224257658388e+04 
       2.537192529406e-02       2.217697630183e+04 
       2.550816401916e-02       2.211094597923e+04 
       2.564455578081e-02       2.204444171243e+04 
       2.578110392052e-02       2.197757853529e+04 
       2.591781186292e-02       2.191057583742e+04 
       2.605468311806e-02       2.184256346007e+04 
       2.619172128385e-02       2.177447861906e+04 
       2.632893004847e-02       2.170624590701e+04 
       2.646631319295e-02       2.163726971584e+04 
       2.660387459382e-02       2.156817103908e+04 
       2.674161822580e-02       2.149864210032e+04 
       2.687954816469e-02       2.142907996509e+04 
       2.701766859025e-02       2.135869293670e+04 
       2.715598378926e-02       2.128824424953e+04 
       2.729449815867e-02       2.121750058645e+04 
       2.743321620883e-02       2.114640305046e+04 
       2.757214256691e-02       2.107538220900e+04 
       2.771128198036e-02       2.100364440402e+04 
       2.785063932056e-02       2.093188093938e+04 
       2.799021958658e-02       2.085969255726e+04 
       2.813002790911e-02       2.078745057689e+04 
       2.827006955447e-02       2.071485339119e+04 
       2.841034992888e-02       2.064211278219e+04 
       2.855087458276e-02       2.056931298821e+04 
       2.869164921534e-02       2.049608871078e+04 
       2.883267967932e-02       2.042292573220e+04 
       2.897397198579e-02       2.034933414785e+04 
       2.911553230935e-02       2.027549911506e+04 
       2.925736699339e-02       2.020175925515e+04 
       2.939948255557e-02       2.012754056460e+04 
       2.954188569362e-02       2.005340429653e+04 
       2.968458329124e-02       1.997929906251e+04 
       2.982758242437e-02       1.990486328249e+04 
       2.997089036763e-02       1.983029583814e+04 
       3.011451460107e-02       1.975553231955e+04 
       3.025846281720e-02       1.968092110759e+04 
       3.040274292831e-02       1.960591577907e+04 
       3.054736307413e-02       1.953102966589e+04 
       3.069233162977e-02       1.945574386067e+04 
       3.083765721406e-02       1.938061473944e+04 
       3.098334869824e-02       1.930541187768e+04 
       3.112941521502e-02       1.923015000802e+04 
       3.127586616807e-02       1.915485015921e+04 
       3.142271124190e-02       1.907959468089e+04 
       3.156996041225e-02       1.900413058125e+04 
       3.171762395693e-02       1.892846873891e+04 
       3.186571246714e-02       1.885288637821e+04 
       3.201423685934e-02       1.877743958881e+04 
       3.216320838771e-02       1.870187214423e+04 
       3.231263865716e-02       1.862621326013e+04 
       3.246253963702e-02       1.855031211221e+04 
       3.261292367531e-02       1.847478700796e+04 
       3.276380351383e-02       1.839904052100e+04 
       3.291519230392e-02       1.832356588486e+04 
       3.306710362299e-02       1.824778716239e+04 
       3.321955149202e-02       1.817205837663e+04 
       3.337255039376e-02       1.809659062310e+04 
       3.352611529207e-02       1.802081368732e+04 
       3.368026165214e-02       1.794520259541e+04 
       3.383500546180e-02       1.786961675312e+04 
       3.399036325404e-02       1.779398731169e+04 
       3.414635213062e-02       1.771867515491e+04 
       3.430298978714e-02       1.764295741610e+04 
       3.446029453928e-02       1.756753791790e+04 
       3.461828535071e-02       1.749223631004e+04 
       3.477698186243e-02       1.741686068545e+04 
       3.493640442385e-02       1.734128424681e+04 
       3.509657412563e-02       1.726591865764e+04 
       3.525751283445e-02       1.719064017844e+04 
       3.541924322986e-02       1.711555104611e+04 
       3.558178884325e-02       1.704030950905e+04 
       3.574517409927e-02       1.696525289490e+04 
       3.590942435966e-02       1.689028767781e+04 
       3.607456596995e-02       1.681506914951e+04 
       3.624062630893e-02       1.674009999429e+04 
       3.640763384131e-02       1.666524152206e+04 
       3.657561817383e-02       1.659056575417e+04 
       3.674461011487e-02       1.651561067080e+04 
       3.691464173810e-02       1.644093253006e+04 
       3.708574645034e-02       1.636620899077e+04 
       3.725795906393e-02       1.629169825684e+04 
       3.743131587419e-02       1.621719648255e+04 
       3.760585474210e-02       1.614251496488e+04 
       3.778161518285e-02       1.606808050183e+04 
       3.795863846075e-02       1.599364688711e+04 
       3.813696769089e-02       1.591935180510e+04 
       3.831664794829e-02       1.584505992387e+04 
       3.849772638517e-02       1.577088258235e+04 
       3.868025235698e-02       1.569667022197e+04 
       3.886427755821e-02       1.562270313535e+04 
       3.904985616849e-02       1.554844276378e+04 
       3.923704501047e-02       1.547437377947e+04 
       3.942590372007e-02       1.540038267620e+04 
       3.961649493067e-02       1.532645327594e+04 
       3.980888447248e-02       1.525267904661e+04 
       4.000314158855e-02       1.517877964387e+04 
       4.019933916918e-02       1.510470973888e+04 
       4.039755400655e-02       1.503086967787e+04 
       4.059786707184e-02       1.495692156271e+04 
       4.080036381697e-02       1.488311542398e+04 
       4.100513450389e-02       1.480939018364e+04 
       4.121227456420e-02       1.473544924120e+04 
       4.142188499274e-02       1.466163111967e+04 
       4.163407277876e-02       1.458780817013e+04 
       4.184895137926e-02       1.451385617171e+04 
       4.206664123921e-02       1.443982844841e+04 
       4.228727036457e-02       1.436595668652e+04 
       4.251097495433e-02       1.429188694623e+04 
       4.273790009899e-02       1.421785181707e+04 
       4.296820055404e-02       1.414366686231e+04 
       4.320204159795e-02       1.406939852455e+04 
       4.343959998603e-02       1.399508389044e+04 
       4.368106501296e-02       1.392070291835e+04 
       4.392663969901e-02       1.384605969962e+04 
       4.417654211731e-02       1.377132703417e+04 
       4.443100688244e-02       1.369655400055e+04 
       4.469028682398e-02       1.362151849175e+04 
       4.495465487281e-02       1.354631134855e+04 
       4.522440619265e-02       1.347088585202e+04 
       4.549986059559e-02       1.339542563824e+04 
       4.578136528681e-02       1.331940823650e+04 
       4.606929799297e-02       1.324312042047e+04 
       4.636407053859e-02       1.316674892076e+04 
       4.666613294781e-02       1.308996266681e+04 
       4.697597816433e-02       1.301282970087e+04 
       4.729414750147e-02       1.293515913843e+04 
       4.762123695813e-02       1.285720788075e+04 
       4.795790456563e-02       1.277872256572e+04 
       4.830487896693e-02       1.269969756375e+04 
       4.866296947568e-02       1.262015112962e+04 
       4.903307791982e-02       1.254022633144e+04 
       4.941621264686e-02       1.245925889159e+04 
       4.981350515961e-02       1.237752336089e+04 
       5.022622996750e-02       1.229518702695e+04 
       5.065582838639e-02       1.221174822803e+04 
       5.110393720850e-02       1.212731389805e+04 
       5.157242340445e-02       1.204168690586e+04 
       5.206342632499e-02       1.195460165178e+04 
       5.257940925760e-02       1.186607402191e+04 
       5.312322267796e-02       1.177655675531e+04 
       5.369818213413e-02       1.168427886785e+04 
       5.430816441386e-02       1.159042974714e+04 
       5.495772644689e-02       1.149442642228e+04 
       5.565225219015e-02       1.139480709191e+04 
       5.639813329898e-02       1.129240541667e+04 
       5.720298917842e-02       1.118537298858e+04 
       5.807592995290e-02       1.107369875310e+04 
       5.902785987305e-02       1.095596386406e+04 
       6.007180476559e-02       1.083099944508e+04 
       6.122321857671e-02       1.069607413797e+04 
       6.250017069165e-02       1.054941255198e+04 
