# Matter power spectrum P(k) at redshift z=1
# for k=1.05281e-05 to 110.562 h/Mpc,
# number of wavenumbers equal to 586
#    1:k (h/Mpc)              2:P (Mpc/h)^3        
       1.052807963578e-05       1.806672027921e+01 
       2.352713877128e-05       3.915522874268e+01 
       3.657270395910e-05       5.985090584036e+01 
       4.970052343139e-05       8.038753584219e+01 
       6.294694706346e-05       1.008970737001e+02 
       7.634925644306e-05       1.214778063314e+02 
       8.994600567360e-05       1.422134168918e+02 
       1.037773775211e-04       1.631807835624e+02 
       1.178855595494e-04       1.844539629270e+02 
       1.323151449221e-04       2.061065994120e+02 
       1.471135625522e-04       2.282135914698e+02 
       1.623315412098e-04       2.508480161930e+02 
       1.780236119899e-04       2.740988838500e+02 
       1.942486531248e-04       2.980483062132e+02 
       2.110704803784e-04       3.227876423670e+02 
       2.285584850483e-04       3.484148143964e+02 
       2.467883197222e-04       3.750352587394e+02 
       2.658426291575e-04       4.027628811794e+02 
       2.858118196580e-04       4.317210089984e+02 
       3.067948547504e-04       4.620433271508e+02 
       3.289000573938e-04       4.938747571479e+02 
       3.522458889436e-04       5.273722408505e+02 
       3.769616622471e-04       5.627053553396e+02 
       4.031881303182e-04       6.000566733162e+02 
       4.310778731430e-04       6.396217533854e+02 
       4.607953840079e-04       6.816086160020e+02 
       4.925167350372e-04       7.262365418476e+02 
       5.264286824636e-04       7.737340025558e+02 
       5.627270604340e-04       8.243355330307e+02 
       6.016143146715e-04       8.782773829830e+02 
       6.432960524117e-04       9.357918135813e+02 
       6.879765412181e-04       9.971000431295e+02 
       7.358531826733e-04       1.062403957007e+03 
       7.871101174963e-04       1.131876920440e+03 
       8.419112759710e-04       1.205654246197e+03 
       9.003933482234e-04       1.283824034861e+03 
       9.626592773655e-04       1.366419302693e+03 
       1.028772934362e-03       1.453412291465e+03 
       1.098755583872e-03       1.544711653996e+03 
       1.172584584722e-03       1.640163072317e+03 
       1.250194508415e-03       1.739553289864e+03 
       1.331480555359e-03       1.842617250894e+03 
       1.416303868000e-03       1.949061293537e+03 
       1.504498142286e-03       2.058545540101e+03 
       1.595876857627e-03       2.170705002613e+03 
       1.690240480427e-03       2.285173070154e+03 
       1.787383118814e-03       2.401584361495e+03 
       1.887098274083e-03       2.519582987618e+03 
       1.989183506405e-03       2.638828990027e+03 
       2.093443979114e-03       2.759002800817e+03 
       2.199694952594e-03       2.879808004837e+03 
       2.307763363477e-03       3.000972827665e+03 
       2.417488653685e-03       3.122250319364e+03 
       2.528723016384e-03       3.243417930997e+03 
       2.641331212050e-03       3.364276522191e+03 
       2.755190085468e-03       3.484649025975e+03 
       2.870187889577e-03       3.604379225725e+03 
       2.986223498027e-03       3.723329236440e+03 
       3.103205567240e-03       3.841378858258e+03 
       3.221051691227e-03       3.958422466831e+03 
       3.339687578590e-03       4.074368875673e+03 
       3.459046270523e-03       4.189139170057e+03 
       3.579067410833e-03       4.302664961017e+03 
       3.699696573416e-03       4.414887657562e+03 
       3.820884648717e-03       4.525757257865e+03 
       3.942587288154e-03       4.635231716375e+03 
       4.064764403838e-03       4.743275864802e+03 
       4.187379719976e-03       4.849859916275e+03 
       4.310400371864e-03       4.954959706336e+03 
       4.433796548217e-03       5.058555885107e+03 
       4.557541172652e-03       5.160633454272e+03 
       4.681609620309e-03       5.261180932703e+03 
       4.805979465866e-03       5.360189685942e+03 
       4.930630259525e-03       5.457654786459e+03 
       5.055543327810e-03       5.553573669020e+03 
       5.180701596389e-03       5.647945192459e+03 
       5.306089432377e-03       5.740771723801e+03 
       5.431692503891e-03       5.832055026961e+03 
       5.557497654851e-03       5.921800134518e+03 
       5.683492793264e-03       6.010013751804e+03 
       5.809666791453e-03       6.096702999457e+03 
       5.936009396828e-03       6.181875707782e+03 
       6.062511152017e-03       6.265540882702e+03 
       6.189163323278e-03       6.347707572097e+03 
       6.315957836252e-03       6.428452904838e+03 
       6.442887218245e-03       6.507655536684e+03 
       6.569944546297e-03       6.585389531660e+03 
       6.697123400411e-03       6.661675792331e+03 
       6.824417821363e-03       6.736521612344e+03 
       6.951822272614e-03       6.809938211994e+03 
       7.079331605864e-03       6.881939597332e+03 
       7.206941029872e-03       6.952540854542e+03 
       7.334646082201e-03       7.021754469826e+03 
       7.462442603569e-03       7.089594460131e+03 
       7.590326714554e-03       7.156074015178e+03 
       7.718294794396e-03       7.221205705300e+03 
       7.846343461705e-03       7.285004195367e+03 
       7.974469556861e-03       7.347483415828e+03 
       8.102670125961e-03       7.408656712392e+03 
       8.230942406143e-03       7.468538777864e+03 
       8.359283812172e-03       7.527126052366e+03 
       8.487691924149e-03       7.584484465228e+03 
       8.616164476255e-03       7.640574205745e+03 
       8.744699346420e-03       7.695424444425e+03 
       8.873294546837e-03       7.749054197947e+03 
       9.001948215243e-03       7.801474947462e+03 
       9.130658606899e-03       7.852699770309e+03 
       9.259424087209e-03       7.902742801889e+03 
       9.388243124907e-03       7.951615785767e+03 
       9.517114285788e-03       7.999335261278e+03 
       9.646036226911e-03       8.045910093618e+03 
       9.775007691250e-03       8.091352896740e+03 
       9.904027502745e-03       8.135680834582e+03 
       1.003309456173e-02       8.178902621532e+03 
       1.016220784070e-02       8.221032006556e+03 
       1.029136638038e-02       8.262085978932e+03 
       1.042056928610e-02       8.302068249663e+03 
       1.054981572441e-02       8.341000242471e+03 
       1.067910492000e-02       8.378887875490e+03 
       1.080843615271e-02       8.415746835303e+03 
       1.093780875492e-02       8.451591156312e+03 
       1.106722210901e-02       8.486420828110e+03 
       1.119667564505e-02       8.520261397338e+03 
       1.132616883861e-02       8.553117854740e+03 
       1.145570120876e-02       8.585004736834e+03 
       1.158527231624e-02       8.615933190752e+03 
       1.171488176167e-02       8.645904900034e+03 
       1.184452918396e-02       8.674949140129e+03 
       1.197421425880e-02       8.703065824698e+03 
       1.210393669726e-02       8.730263789870e+03 
       1.223369624451e-02       8.756561012159e+03 
       1.236349267858e-02       8.781967979724e+03 
       1.249332580927e-02       8.806482252347e+03 
       1.262319547707e-02       8.830132420895e+03 
       1.275310155224e-02       8.852920432762e+03 
       1.288304393385e-02       8.874855259611e+03 
       1.301302254903e-02       8.895951988763e+03 
       1.314303735211e-02       8.916221014786e+03 
       1.327308832397e-02       8.935667824630e+03 
       1.340317547138e-02       8.954301164862e+03 
       1.353329882634e-02       8.972129039225e+03 
       1.366345844560e-02       8.989172978764e+03 
       1.379365441007e-02       9.005434353966e+03 
       1.392388682441e-02       9.020924381063e+03 
       1.405415581658e-02       9.035651926503e+03 
       1.418446153744e-02       9.049635159714e+03 
       1.431480416042e-02       9.062869643218e+03 
       1.444518388118e-02       9.075366150682e+03 
       1.457560091735e-02       9.087145468364e+03 
       1.470605550826e-02       9.098212347822e+03 
       1.483654791471e-02       9.108562584821e+03 
       1.496707841883e-02       9.118223847264e+03 
       1.509764732382e-02       9.127197284209e+03 
       1.522825495392e-02       9.135486123224e+03 
       1.535890165420e-02       9.143112885283e+03 
       1.548958779054e-02       9.150074221566e+03 
       1.562031374954e-02       9.156385200015e+03 
       1.575107993846e-02       9.162045336867e+03 
       1.588188678525e-02       9.167071707966e+03 
       1.601273473850e-02       9.171476464923e+03 
       1.614362426748e-02       9.175256280179e+03 
       1.627455586219e-02       9.178424728442e+03 
       1.640553003342e-02       9.181001816277e+03 
       1.653654731284e-02       9.182964689879e+03 
       1.666760825308e-02       9.184358505382e+03 
       1.679871342786e-02       9.185166655240e+03 
       1.692986343213e-02       9.185403267195e+03 
       1.706105888222e-02       9.185079698614e+03 
       1.719230041601e-02       9.184204228769e+03 
       1.732358869314e-02       9.182774766870e+03 
       1.745492439519e-02       9.180813063669e+03 
       1.758630822591e-02       9.178317312046e+03 
       1.771774091148e-02       9.175296111690e+03 
       1.784922320075e-02       9.171763006855e+03 
       1.798075586552e-02       9.167723246738e+03 
       1.811233970081e-02       9.163170637691e+03 
       1.824397552522e-02       9.158134718326e+03 
       1.837566418119e-02       9.152610693336e+03 
       1.850740653539e-02       9.146601529314e+03 
       1.863920347907e-02       9.140118063223e+03 
       1.877105592840e-02       9.133176549951e+03 
       1.890296482491e-02       9.125776429617e+03 
       1.903493113585e-02       9.117919427501e+03 
       1.916695585466e-02       9.109620120724e+03 
       1.929904000140e-02       9.100887333016e+03 
       1.943118462320e-02       9.091715933856e+03 
       1.956339079474e-02       9.082126862849e+03 
       1.969565961876e-02       9.072123546491e+03 
       1.982799222657e-02       9.061711509691e+03 
       1.996038977859e-02       9.050888276295e+03 
       2.009285346489e-02       9.039668215361e+03 
       2.022538450578e-02       9.028065411727e+03 
       2.035798415238e-02       9.016075634107e+03 
       2.049065368728e-02       9.003699219655e+03 
       2.062339442512e-02       8.990962320484e+03 
       2.075620771328e-02       8.977864406256e+03 
       2.088909493254e-02       8.964383931335e+03 
       2.102205749780e-02       8.950578143664e+03 
       2.115509685878e-02       8.936412586933e+03 
       2.128821450077e-02       8.921907144584e+03 
       2.142141194544e-02       8.907078852713e+03 
       2.155469075155e-02       8.891905755668e+03 
       2.168805251584e-02       8.876416783068e+03 
       2.182149887387e-02       8.860609525376e+03 
       2.195503150086e-02       8.844500706702e+03 
       2.208865211260e-02       8.828071095107e+03 
       2.222236246639e-02       8.811367932177e+03 
       2.235616436199e-02       8.794352051695e+03 
       2.249005964261e-02       8.777043797723e+03 
       2.262405019591e-02       8.759472183434e+03 
       2.275813795508e-02       8.741608145726e+03 
       2.289232489987e-02       8.723486352536e+03 
       2.302661305778e-02       8.705083296831e+03 
       2.316100450515e-02       8.686433636078e+03 
       2.329550136835e-02       8.667510795410e+03 
       2.343010582505e-02       8.648361825484e+03 
       2.356482010544e-02       8.628962279247e+03 
       2.369964649352e-02       8.609321884601e+03 
       2.383458732851e-02       8.589436780030e+03 
       2.396964500615e-02       8.569342120314e+03 
       2.410482198019e-02       8.549007990602e+03 
       2.424012076385e-02       8.528463063510e+03 
       2.437554393133e-02       8.507699067331e+03 
       2.451109411939e-02       8.486738679406e+03 
       2.464677402898e-02       8.465540937184e+03 
       2.478258642689e-02       8.444170831805e+03 
       2.491853414750e-02       8.422608059455e+03 
       2.505462009456e-02       8.400844932235e+03 
       2.519084724304e-02       8.378898676031e+03 
       2.532721864101e-02       8.356780945406e+03 
       2.546373741164e-02       8.334461806172e+03 
       2.560040675519e-02       8.311999473340e+03 
       2.573722995118e-02       8.289333763349e+03 
       2.587421036047e-02       8.266545976804e+03 
       2.601135142760e-02       8.243585316648e+03 
       2.614865668303e-02       8.220443690504e+03 
       2.628612974560e-02       8.197187084819e+03 
       2.642377432498e-02       8.173761913818e+03 
       2.656159422425e-02       8.150190532175e+03 
       2.669959334255e-02       8.126500041389e+03 
       2.683777567787e-02       8.102672014871e+03 
       2.697614532985e-02       8.078712468917e+03 
       2.711470650275e-02       8.054608693904e+03 
       2.725346350851e-02       8.030410159377e+03 
       2.739242076994e-02       8.006074969123e+03 
       2.753158282394e-02       7.981655183037e+03 
       2.767095432496e-02       7.957070148809e+03 
       2.781054004850e-02       7.932418380139e+03 
       2.795034489477e-02       7.907636126766e+03 
       2.809037389249e-02       7.882764932680e+03 
       2.823063220280e-02       7.857810998288e+03 
       2.837112512338e-02       7.832752490576e+03 
       2.851185809267e-02       7.807590968064e+03 
       2.865283669427e-02       7.782356216188e+03 
       2.879406666152e-02       7.757037288198e+03 
       2.893555388224e-02       7.731639734089e+03 
       2.907730440370e-02       7.706152936112e+03 
       2.921932443769e-02       7.680620062207e+03 
       2.936162036594e-02       7.655011162896e+03 
       2.950419874559e-02       7.629294858891e+03 
       2.964706631503e-02       7.603537279951e+03 
       2.979022999988e-02       7.577719043188e+03 
       2.993369691926e-02       7.551828407680e+03 
       3.007747439231e-02       7.525909454102e+03 
       3.022156994498e-02       7.499910291376e+03 
       3.036599131712e-02       7.473883184964e+03 
       3.051074646987e-02       7.447773753654e+03 
       3.065584359332e-02       7.421645405884e+03 
       3.080129111460e-02       7.395467388558e+03 
       3.094709770622e-02       7.369249846463e+03 
       3.109327229483e-02       7.342999936116e+03 
       3.123982407039e-02       7.316703996489e+03 
       3.138676249569e-02       7.290388988704e+03 
       3.153409731637e-02       7.264039559246e+03 
       3.168183857133e-02       7.237645802294e+03 
       3.182999660368e-02       7.211209666113e+03 
       3.197858207216e-02       7.184790049788e+03 
       3.212760596310e-02       7.158329059813e+03 
       3.227707960298e-02       7.131839289119e+03 
       3.242701467157e-02       7.105361351701e+03 
       3.257742321567e-02       7.078840734555e+03 
       3.272831766358e-02       7.052277887115e+03 
       3.287971084027e-02       7.025745055033e+03 
       3.303161598327e-02       6.999198700731e+03 
       3.318404675938e-02       6.972635847031e+03 
       3.333701728224e-02       6.946058582467e+03 
       3.349054213081e-02       6.919475632131e+03 
       3.364463636875e-02       6.892869956836e+03 
       3.379931556487e-02       6.866311096953e+03 
       3.395459581468e-02       6.839702519499e+03 
       3.411049376300e-02       6.813121155870e+03 
       3.426702662790e-02       6.786521832975e+03 
       3.442421222585e-02       6.759945922661e+03 
       3.458206899836e-02       6.733358014078e+03 
       3.474061604002e-02       6.706770391163e+03 
       3.489987312815e-02       6.680210363726e+03 
       3.505986075418e-02       6.653626683524e+03 
       3.522060015677e-02       6.627058462260e+03 
       3.538211335696e-02       6.600501617318e+03 
       3.554442319525e-02       6.573949879451e+03 
       3.570755337109e-02       6.547427547232e+03 
       3.587152848455e-02       6.520898456170e+03 
       3.603637408072e-02       6.494382031964e+03 
       3.620211669673e-02       6.467872989212e+03 
       3.636878391178e-02       6.441363918902e+03 
       3.653640440034e-02       6.414917640117e+03 
       3.670500798871e-02       6.388444097687e+03 
       3.687462571538e-02       6.361989902916e+03 
       3.704528989521e-02       6.335549667526e+03 
       3.721703418802e-02       6.309125537844e+03 
       3.738989367174e-02       6.282712037925e+03 
       3.756390492062e-02       6.256332023317e+03 
       3.773910608882e-02       6.229917972000e+03 
       3.791553699991e-02       6.203572604415e+03 
       3.809323924274e-02       6.177222312629e+03 
       3.827225627425e-02       6.150877194003e+03 
       3.845263352981e-02       6.124540560525e+03 
       3.863441854176e-02       6.098238363022e+03 
       3.881766106688e-02       6.071936446588e+03 
       3.900241322368e-02       6.045647320354e+03 
       3.918872964022e-02       6.019381213060e+03 
       3.937666761377e-02       5.993114511446e+03 
       3.956628728303e-02       5.966841775239e+03 
       3.975765181456e-02       5.940590192642e+03 
       3.995082760442e-02       5.914352274814e+03 
       4.014588449686e-02       5.888117067030e+03 
       4.034289602152e-02       5.861863314614e+03 
       4.054193965128e-02       5.835656460669e+03 
       4.074309708274e-02       5.809428764632e+03 
       4.094645454185e-02       5.783192975776e+03 
       4.115210311733e-02       5.756982086513e+03 
       4.136013912504e-02       5.730764531927e+03 
       4.157066450664e-02       5.704519500146e+03 
       4.178378726659e-02       5.678277715156e+03 
       4.199962195174e-02       5.652017343173e+03 
       4.221829017879e-02       5.625762131305e+03 
       4.243992121517e-02       5.599484193084e+03 
       4.266465261996e-02       5.573171892538e+03 
       4.289263095237e-02       5.546863050106e+03 
       4.312401255639e-02       5.520520361772e+03 
       4.335896443142e-02       5.494147711073e+03 
       4.359766520032e-02       5.467739648133e+03 
       4.384030618811e-02       5.441315752843e+03 
       4.408709262643e-02       5.414822027424e+03 
       4.433824500167e-02       5.388311836553e+03 
       4.459400056723e-02       5.361733795266e+03 
       4.485461504426e-02       5.335096370514e+03 
       4.512036453906e-02       5.308406549671e+03 
       4.539154771049e-02       5.281663003010e+03 
       4.566848822681e-02       5.254829537191e+03 
       4.595153755833e-02       5.227914761153e+03 
       4.624107816139e-02       5.200915425602e+03 
       4.653752711965e-02       5.173811999265e+03 
       4.684134032173e-02       5.146610050010e+03 
       4.715301727024e-02       5.119293629064e+03 
       4.747310663700e-02       5.091847409428e+03 
       4.780221270340e-02       5.064261233816e+03 
       4.814100285503e-02       5.036519640053e+03 
       4.849021633749e-02       5.008620433850e+03 
       4.885067452707e-02       4.980541153792e+03 
       4.922329302914e-02       4.952258375249e+03 
       4.960909599182e-02       4.923758876109e+03 
       5.000923311649e-02       4.895017315332e+03 
       5.042499996672e-02       4.866015645965e+03 
       5.085786232947e-02       4.836722550381e+03 
       5.130948557676e-02       4.807097770834e+03 
       5.178177022358e-02       4.777112330596e+03 
       5.227689519273e-02       4.746735597942e+03 
       5.279737069573e-02       4.715891603272e+03 
       5.334610313742e-02       4.684539994265e+03 
       5.392647506411e-02       4.652587860765e+03 
       5.454244390215e-02       4.619965523051e+03 
       5.519866404304e-02       4.586557991584e+03 
       5.590063761873e-02       4.552219361938e+03 
       5.665489981573e-02       4.516789589319e+03 
       5.746924423008e-02       4.480022437912e+03 
       5.835299139430e-02       4.441639448987e+03 
       5.931729693214e-02       4.401232373477e+03 
       6.037548061659e-02       4.358260844605e+03 
       6.154332677937e-02       4.312003631001e+03 
       6.283924951609e-02       4.261433082851e+03 
