# Matter power spectrum P(k) at redshift z=1
# for k=1.05281e-05 to 106.946 h/Mpc,
# number of wavenumbers equal to 622
#    1:k (h/Mpc)              2:P (Mpc/h)^3        
       1.052807963578e-05       1.806672527089e+01 
       2.352713877128e-05       3.915522887855e+01 
       3.657270395910e-05       5.985090591886e+01 
       4.970052343139e-05       8.038753580221e+01 
       6.294694706346e-05       1.008970746642e+02 
       7.634925644306e-05       1.214778067643e+02 
       8.994600567360e-05       1.422134172576e+02 
       1.037773775211e-04       1.631807835803e+02 
       1.178855595494e-04       1.844539629411e+02 
       1.323151449221e-04       2.061065993556e+02 
       1.471135625522e-04       2.282135914716e+02 
       1.623315412098e-04       2.508523858149e+02 
       1.780236119899e-04       2.741040796999e+02 
       1.942486531248e-04       2.980544250053e+02 
       2.110704803784e-04       3.227947911097e+02 
       2.285584850483e-04       3.484231114890e+02 
       2.467883197222e-04       3.750448359531e+02 
       2.658426291575e-04       4.027738855839e+02 
       2.858118196580e-04       4.317336054949e+02 
       3.067948547504e-04       4.620577014514e+02 
       3.289000573938e-04       4.938911187601e+02 
       3.522458889436e-04       5.273908264912e+02 
       3.769616622471e-04       5.627264337616e+02 
       4.031881303182e-04       6.000805494071e+02 
       4.310778731430e-04       6.396487737694e+02 
       4.607953840079e-04       6.816391751415e+02 
       4.925167350372e-04       7.262710883238e+02 
       5.264286824636e-04       7.737730461712e+02 
       5.627270604340e-04       8.243796523303e+02 
       6.016143146715e-04       8.783272336943e+02 
       6.432960524117e-04       9.358481342876e+02 
       6.879765412181e-04       9.971636643630e+02 
       7.358531826733e-04       1.062475806941e+03 
       7.871101174963e-04       1.131958028000e+03 
       8.419112759710e-04       1.205745744798e+03 
       9.003933482234e-04       1.283927160417e+03 
       9.626592773655e-04       1.366535387611e+03 
       1.028772934362e-03       1.453542760389e+03 
       1.098755583872e-03       1.544858008478e+03 
       1.172584584722e-03       1.640326869974e+03 
       1.250194508415e-03       1.739736131838e+03 
       1.331480555359e-03       1.842820754754e+03 
       1.416303868000e-03       1.949287082447e+03 
       1.504498142286e-03       2.058795188433e+03 
       1.595876857627e-03       2.170980029676e+03 
       1.690240480427e-03       2.285474919665e+03 
       1.787383118814e-03       2.401914352224e+03 
       1.887098274083e-03       2.519942339366e+03 
       1.989183506405e-03       2.639218782411e+03 
       2.093443979114e-03       2.759423981658e+03 
       2.199694952594e-03       2.880261156592e+03 
       2.307763363477e-03       3.001458613725e+03 
       2.417488653685e-03       3.122769065366e+03 
       2.528723016384e-03       3.243969780403e+03 
       2.641331212050e-03       3.364861413019e+03 
       2.755190085468e-03       3.485266754402e+03 
       2.870187889577e-03       3.605029314833e+03 
       2.986223498027e-03       3.724010836058e+03 
       3.103205567240e-03       3.842091127213e+03 
       3.221051691227e-03       3.959164313132e+03 
       3.339687578590e-03       4.075139098725e+03 
       3.459046270523e-03       4.189935941330e+03 
       3.579067410833e-03       4.303486685181e+03 
       3.699696573416e-03       4.415732208959e+03 
       3.820884648717e-03       4.526622513298e+03 
       3.942587288154e-03       4.636115218732e+03 
       4.064764403838e-03       4.744174919581e+03 
       4.187379719976e-03       4.850771801481e+03 
       4.310400371864e-03       4.955881180122e+03 
       4.433796548217e-03       5.059484044075e+03 
       4.557541172652e-03       5.161564136366e+03 
       4.681609620309e-03       5.262111053186e+03 
       4.805979465866e-03       5.361115475412e+03 
       4.930630259525e-03       5.458572036821e+03 
       5.055543327810e-03       5.554477860250e+03 
       5.180701596389e-03       5.648832187210e+03 
       5.306089432377e-03       5.741635717200e+03 
       5.431692503891e-03       5.832893304935e+03 
       5.557497654851e-03       5.922606944757e+03 
       5.683492793264e-03       6.010783626586e+03 
       5.809666791453e-03       6.097430191105e+03 
       5.936009396828e-03       6.182554939541e+03 
       6.062511152017e-03       6.266167325435e+03 
       6.189163323278e-03       6.348275446312e+03 
       6.315957836252e-03       6.428954944419e+03 
       6.442887218245e-03       6.508085313382e+03 
       6.569944546297e-03       6.585741549351e+03 
       6.697123400411e-03       6.661943191345e+03 
       6.824417821363e-03       6.736697947137e+03 
       6.951822272614e-03       6.810015997014e+03 
       7.079331605864e-03       6.881913503915e+03 
       7.206941029872e-03       6.952402539684e+03 
       7.334646082201e-03       7.021497737702e+03 
       7.462442603569e-03       7.089210706407e+03 
       7.590326714554e-03       7.155555955947e+03 
       7.718294794396e-03       7.220544381657e+03 
       7.846343461705e-03       7.284195069129e+03 
       7.974469556861e-03       7.346515647508e+03 
       8.102670125961e-03       7.407524129372e+03 
       8.230942406143e-03       7.467233391666e+03 
       8.359283812172e-03       7.525638602323e+03 
       8.487691924149e-03       7.582806690066e+03 
       8.616164476255e-03       7.638697589418e+03 
       8.744699346420e-03       7.693341297983e+03 
       8.873294546837e-03       7.746755174863e+03 
       9.001948215243e-03       7.798951128348e+03 
       9.130658606899e-03       7.849943108794e+03 
       9.259424087209e-03       7.899743188801e+03 
       9.388243124907e-03       7.948366030713e+03 
       9.517114285788e-03       7.995824556303e+03 
       9.646036226911e-03       8.042130052656e+03 
       9.775007691250e-03       8.087293682927e+03 
       9.904027502745e-03       8.131334224968e+03 
       1.003309456173e-02       8.174258690592e+03 
       1.016220784070e-02       8.216081699175e+03 
       1.029136638038e-02       8.256819692886e+03 
       1.042056928610e-02       8.296476437709e+03 
       1.054981572441e-02       8.335073030445e+03 
       1.067910492000e-02       8.372615986800e+03 
       1.080843615271e-02       8.409120419812e+03 
       1.093780875492e-02       8.444600745577e+03 
       1.106722210901e-02       8.479056559992e+03 
       1.119667564505e-02       8.512512722793e+03 
       1.132616883861e-02       8.544976484991e+03 
       1.145570120876e-02       8.576461165801e+03 
       1.158527231624e-02       8.606975832446e+03 
       1.171488176167e-02       8.636525042238e+03 
       1.184452918396e-02       8.665136283397e+03 
       1.197421425880e-02       8.692810792846e+03 
       1.210393669726e-02       8.719557637349e+03 
       1.223369624451e-02       8.745391586729e+03 
       1.236349267858e-02       8.770323323715e+03 
       1.249332580927e-02       8.794359310757e+03 
       1.262319547707e-02       8.817517547278e+03 
       1.275310155224e-02       8.839804588629e+03 
       1.288304393385e-02       8.861229993838e+03 
       1.301302254903e-02       8.881803016805e+03 
       1.314303735211e-02       8.901542488298e+03 
       1.327308832397e-02       8.920448994312e+03 
       1.340317547138e-02       8.938532384425e+03 
       1.353329882634e-02       8.955800541526e+03 
       1.366345844560e-02       8.972274684688e+03 
       1.379365441007e-02       8.987957802939e+03 
       1.392388682441e-02       9.002859381115e+03 
       1.405415581658e-02       9.016989341261e+03 
       1.418446153744e-02       9.030365327233e+03 
       1.431480416042e-02       9.042983450475e+03 
       1.444518388118e-02       9.054854060895e+03 
       1.457560091735e-02       9.065997663211e+03 
       1.470605550826e-02       9.076420846675e+03 
       1.483654791471e-02       9.086117908876e+03 
       1.496707841883e-02       9.095116731093e+03 
       1.509764732382e-02       9.103419317820e+03 
       1.522825495392e-02       9.111029742744e+03 
       1.535890165420e-02       9.117965285018e+03 
       1.548958779054e-02       9.124228924991e+03 
       1.562031374954e-02       9.129833286916e+03 
       1.575107993846e-02       9.134778416404e+03 
       1.588188678525e-02       9.139081424668e+03 
       1.601273473850e-02       9.142753183744e+03 
       1.614362426748e-02       9.145794079814e+03 
       1.627455586219e-02       9.148214440041e+03 
       1.640553003342e-02       9.150030293634e+03 
       1.653654731284e-02       9.151233278492e+03 
       1.666760825308e-02       9.151854526440e+03 
       1.679871342786e-02       9.151880465107e+03 
       1.692986343213e-02       9.151331440180e+03 
       1.706105888222e-02       9.150215387965e+03 
       1.719230041601e-02       9.148530375282e+03 
       1.732358869314e-02       9.146295215864e+03 
       1.745492439519e-02       9.143514681798e+03 
       1.758630822591e-02       9.140194908103e+03 
       1.771774091148e-02       9.136341187444e+03 
       1.784922320075e-02       9.131970729237e+03 
       1.798075586552e-02       9.127080727448e+03 
       1.811233970081e-02       9.121679549692e+03 
       1.824397552522e-02       9.115779674246e+03 
       1.837566418119e-02       9.109401104279e+03 
       1.850740653539e-02       9.102515069603e+03 
       1.863920347907e-02       9.095154404301e+03 
       1.877105592840e-02       9.087327967379e+03 
       1.890296482491e-02       9.079039117028e+03 
       1.903493113585e-02       9.070284569514e+03 
       1.916695585466e-02       9.061081562563e+03 
       1.929904000140e-02       9.051445374826e+03 
       1.943118462320e-02       9.041361167475e+03 
       1.956339079474e-02       9.030853110378e+03 
       1.969565961876e-02       9.019929047702e+03 
       1.982799222657e-02       9.008583530690e+03 
       1.996038977859e-02       8.996829918885e+03 
       2.009285346489e-02       8.984672532352e+03 
       2.022538450578e-02       8.972122411960e+03 
       2.035798415238e-02       8.959191304249e+03 
       2.049065368728e-02       8.945861531130e+03 
       2.062339442512e-02       8.932168095048e+03 
       2.075620771328e-02       8.918109136299e+03 
       2.088909493254e-02       8.903668304831e+03 
       2.102205749780e-02       8.888893650410e+03 
       2.115509685878e-02       8.873754394234e+03 
       2.128821450077e-02       8.858278606746e+03 
       2.142141194544e-02       8.842463564577e+03 
       2.155469075155e-02       8.826308927799e+03 
       2.168805251584e-02       8.809836143669e+03 
       2.182149887387e-02       8.793043949661e+03 
       2.195503150086e-02       8.775936355483e+03 
       2.208865211260e-02       8.758512929761e+03 
       2.222236246639e-02       8.740813129036e+03 
       2.235616436199e-02       8.722786487559e+03 
       2.249005964261e-02       8.704487610369e+03 
       2.262405019591e-02       8.685909866887e+03 
       2.275813795508e-02       8.667036965816e+03 
       2.289232489987e-02       8.647890063365e+03 
       2.302661305778e-02       8.628494437371e+03 
       2.316100450515e-02       8.608816644431e+03 
       2.329550136835e-02       8.588887102572e+03 
       2.343010582505e-02       8.568720122207e+03 
       2.356482010544e-02       8.548308972046e+03 
       2.369964649352e-02       8.527641751281e+03 
       2.383458732851e-02       8.506744021954e+03 
       2.396964500615e-02       8.485611327378e+03 
       2.410482198019e-02       8.464249014395e+03 
       2.424012076385e-02       8.442671865315e+03 
       2.437554393133e-02       8.420893791289e+03 
       2.451109411939e-02       8.398887329070e+03 
       2.464677402898e-02       8.376676862065e+03 
       2.478258642689e-02       8.354282790239e+03 
       2.491853414750e-02       8.331688517052e+03 
       2.505462009456e-02       8.308890186246e+03 
       2.519084724304e-02       8.285911885474e+03 
       2.532721864101e-02       8.262764639043e+03 
       2.546373741164e-02       8.239413496615e+03 
       2.560040675519e-02       8.215918196474e+03 
       2.573722995118e-02       8.192221631563e+03 
       2.587421036047e-02       8.168404906398e+03 
       2.601135142760e-02       8.144409520773e+03 
       2.614865668303e-02       8.120232445276e+03 
       2.628612974560e-02       8.095948121530e+03 
       2.642377432498e-02       8.071493281091e+03 
       2.656159422425e-02       8.046907429830e+03 
       2.669959334255e-02       8.022169968795e+03 
       2.683777567787e-02       7.997311836276e+03 
       2.697614532985e-02       7.972318095327e+03 
       2.711470650275e-02       7.947194366292e+03 
       2.725346350851e-02       7.921965052484e+03 
       2.739242076994e-02       7.896608950301e+03 
       2.753158282394e-02       7.871130921748e+03 
       2.767095432496e-02       7.845547794940e+03 
       2.781054004850e-02       7.819859101615e+03 
       2.795034489477e-02       7.794061902882e+03 
       2.809037389249e-02       7.768164107927e+03 
       2.823063220280e-02       7.742198417663e+03 
       2.837112512338e-02       7.716115778965e+03 
       2.851185809267e-02       7.689946515098e+03 
       2.865283669427e-02       7.663676317146e+03 
       2.879406666152e-02       7.637355681028e+03 
       2.893555388224e-02       7.610933873864e+03 
       2.907730440370e-02       7.584447819486e+03 
       2.921932443769e-02       7.557890939396e+03 
       2.936162036594e-02       7.531267230940e+03 
       2.950419874559e-02       7.504547835162e+03 
       2.964706631503e-02       7.477780422299e+03 
       2.979022999988e-02       7.450971316683e+03 
       2.993369691926e-02       7.424074405930e+03 
       3.007747439231e-02       7.397145398585e+03 
       3.022156994498e-02       7.370149992006e+03 
       3.036599131712e-02       7.343101880458e+03 
       3.051074646987e-02       7.316021535535e+03 
       3.065584359332e-02       7.288892048429e+03 
       3.080129111460e-02       7.261731345345e+03 
       3.094709770622e-02       7.234509969086e+03 
       3.109327229483e-02       7.207266329575e+03 
       3.123982407039e-02       7.179963428671e+03 
       3.138676249569e-02       7.152672413817e+03 
       3.153409731637e-02       7.125316250038e+03 
       3.168183857133e-02       7.097928927106e+03 
       3.182999660368e-02       7.070556670228e+03 
       3.197858207216e-02       7.043125710205e+03 
       3.212760596310e-02       7.015695327018e+03 
       3.227707960298e-02       6.988220550707e+03 
       3.242701467157e-02       6.960748175693e+03 
       3.257742321567e-02       6.933260740991e+03 
       3.272831766358e-02       6.905747136618e+03 
       3.287971084027e-02       6.878225469527e+03 
       3.303161598327e-02       6.850698063436e+03 
       3.318404675938e-02       6.823177551318e+03 
       3.333701728224e-02       6.795602760500e+03 
       3.349054213081e-02       6.768067101859e+03 
       3.364463636875e-02       6.740513422479e+03 
       3.379931556487e-02       6.712949239278e+03 
       3.395459581468e-02       6.685410745116e+03 
       3.411049376300e-02       6.657842834766e+03 
       3.426702662790e-02       6.630278200090e+03 
       3.442421222585e-02       6.602737037759e+03 
       3.458206899836e-02       6.575186313985e+03 
       3.474061604002e-02       6.547632377607e+03 
       3.489987312815e-02       6.520084774868e+03 
       3.505986075418e-02       6.492549030002e+03 
       3.522060015677e-02       6.465035197162e+03 
       3.538211335696e-02       6.437516955495e+03 
       3.554442319525e-02       6.410018142899e+03 
       3.570755337109e-02       6.382520982554e+03 
       3.587152848455e-02       6.355049773175e+03 
       3.603637408072e-02       6.327558931313e+03 
       3.620211669673e-02       6.300088814501e+03 
       3.636878391178e-02       6.272628490116e+03 
       3.653640440034e-02       6.245199927216e+03 
       3.670500798871e-02       6.217775006750e+03 
       3.687462571538e-02       6.190348638997e+03 
       3.704528989521e-02       6.162949533575e+03 
       3.721703418802e-02       6.135559286461e+03 
       3.738989367174e-02       6.108174951307e+03 
       3.756390492062e-02       6.080816195075e+03 
       3.773910608882e-02       6.053455702166e+03 
       3.791553699991e-02       6.026111325394e+03 
       3.809323924274e-02       5.998792264750e+03 
       3.827225627425e-02       5.971463623575e+03 
       3.845263352981e-02       5.944167358631e+03 
       3.863441854176e-02       5.916859803502e+03 
       3.881766106688e-02       5.889577189525e+03 
       3.900241322368e-02       5.862301406414e+03 
       3.918872964022e-02       5.835021146297e+03 
       3.937666761377e-02       5.807769452497e+03 
       3.956628728303e-02       5.780495784804e+03 
       3.975765181456e-02       5.753230760940e+03 
       3.995082760442e-02       5.725980158858e+03 
       4.014588449686e-02       5.698735698165e+03 
       4.034289602152e-02       5.671480669227e+03 
       4.054193965128e-02       5.644225515663e+03 
       4.074309708274e-02       5.616962116947e+03 
       4.094645454185e-02       5.589690660124e+03 
       4.115210311733e-02       5.562416672103e+03 
       4.136013912504e-02       5.535133807912e+03 
       4.157066450664e-02       5.507823351287e+03 
       4.178378726659e-02       5.480487818595e+03 
       4.199962195174e-02       5.453169446710e+03 
       4.221829017879e-02       5.425819218367e+03 
       4.243992121517e-02       5.398427713220e+03 
       4.266465261996e-02       5.371004724073e+03 
       4.289263095237e-02       5.343566383115e+03 
       4.312401255639e-02       5.316091167322e+03 
       4.335896443142e-02       5.288554120463e+03 
       4.359766520032e-02       5.260965436018e+03 
       4.384030618811e-02       5.233350598455e+03 
       4.408709262643e-02       5.205660550031e+03 
       4.433824500167e-02       5.177913043794e+03 
       4.459400056723e-02       5.150103503290e+03 
       4.485461504426e-02       5.122200594284e+03 
       4.512036453906e-02       5.094233569120e+03 
       4.539154771049e-02       5.066165648992e+03 
       4.566848822681e-02       5.037999991737e+03 
       4.595153755833e-02       5.009718625104e+03 
       4.624107816139e-02       4.981343288986e+03 
       4.653752711965e-02       4.952809509789e+03 
       4.684134032173e-02       4.924152883285e+03 
       4.715301727024e-02       4.895328629332e+03 
       4.747310663700e-02       4.866364162768e+03 
       4.780221270340e-02       4.837195225095e+03 
       4.814100285503e-02       4.807814529443e+03 
       4.849021633749e-02       4.778256038450e+03 
       4.885067452707e-02       4.748442990007e+03 
       4.922329302914e-02       4.718368674647e+03 
       4.960909599182e-02       4.688012522251e+03 
       5.000923311649e-02       4.657344748049e+03 
       5.042499996672e-02       4.626331206642e+03 
       5.085786232947e-02       4.594937936093e+03 
       5.130948557676e-02       4.563129756010e+03 
       5.178177022358e-02       4.530843226616e+03 
       5.227689519273e-02       4.498037519383e+03 
       5.279737069573e-02       4.464641001114e+03 
       5.334610313742e-02       4.430582543155e+03 
       5.392647506411e-02       4.395759668469e+03 
       5.454244390215e-02       4.360077764151e+03 
       5.519866404304e-02       4.323397579728e+03 
       5.590063761873e-02       4.285531750564e+03 
       5.665489981573e-02       4.246302018995e+03 
       5.746924423008e-02       4.205418625718e+03 
       5.835299139430e-02       4.162560116451e+03 
       5.931729693214e-02       4.117271068924e+03 
       6.037548061659e-02       4.068933610184e+03 
       6.154332677937e-02       4.016796249340e+03 
       6.283924951609e-02       3.959806189361e+03 
