# Matter power spectrum P(k) at redshift z=1
# for k=1.04783e-05 to 106.477 h/Mpc,
# number of wavenumbers equal to 622
#    1:k (h/Mpc)              2:P (Mpc/h)^3        
       1.047825021619e-05       1.839387377260e+01 
       2.343794199312e-05       3.990052639924e+01 
       3.644367066324e-05       6.100561421325e+01 
       4.953085910902e-05       8.194748138132e+01 
       6.273552237403e-05       1.028604266922e+02 
       7.609459272162e-05       1.238443561942e+02 
       8.964625519788e-05       1.449842461479e+02 
       1.034302982125e-04       1.663581003021e+02 
       1.174884836857e-04       1.880410047351e+02 
       1.318649413429e-04       2.101075807815e+02 
       1.466065917440e-04       2.326336757584e+02 
       1.617636025641e-04       2.556976740719e+02 
       1.773898824500e-04       2.793816127425e+02 
       1.935436163708e-04       3.037721933007e+02 
       2.102878456686e-04       3.289617520935e+02 
       2.276910948485e-04       3.550492155290e+02 
       2.458280453438e-04       3.821410549032e+02 
       2.647802538195e-04       4.103522485207e+02 
       2.846369087365e-04       4.398072414054e+02 
       3.054956135381e-04       4.706408855029e+02 
       3.274631775372e-04       5.029993291652e+02 
       3.506563859363e-04       5.370408099872e+02 
       3.752027080307e-04       5.729362839005e+02 
       4.012408872633e-04       6.108698031603e+02 
       4.289213384983e-04       6.510385303772e+02 
       4.584062573179e-04       6.936522453944e+02 
       4.898693248886e-04       7.389321836539e+02 
       5.234948729042e-04       7.871090126562e+02 
       5.594763609147e-04       8.384197685641e+02 
       5.980140194561e-04       8.931035632848e+02 
       6.393115348484e-04       9.513959516444e+02 
       6.835717036344e-04       1.013521931466e+03 
       7.309910726779e-04       1.079687686501e+03 
       7.817537055470e-04       1.150071393922e+03 
       8.360243679255e-04       1.224813630225e+03 
       8.939415828171e-04       1.304008072945e+03 
       9.556111366399e-04       1.387693414946e+03 
       1.021100680625e-03       1.475847380308e+03 
       1.090436034954e-03       1.568383585240e+03 
       1.163599652760e-03       1.665151784121e+03 
       1.240531454790e-03       1.765941579853e+03 
       1.321131950357e-03       1.870489341326e+03 
       1.405267280218e-03       1.978479142354e+03 
       1.492775612116e-03       2.089571753452e+03 
       1.583474226069e-03       2.203411274318e+03 
       1.677166647844e-03       2.319625765095e+03 
       1.773649300224e-03       2.437843434689e+03 
       1.872717302458e-03       2.557701224284e+03 
       1.974169217792e-03       2.678851494764e+03 
       2.077810696797e-03       2.800966757181e+03 
       2.183457074155e-03       2.923742992416e+03 
       2.290935045269e-03       3.046900366550e+03 
       2.400083581612e-03       3.170185011942e+03 
       2.510754249390e-03       3.293367298266e+03 
       2.622811084300e-03       3.416241889246e+03 
       2.736130154201e-03       3.538625936849e+03 
       2.850598917232e-03       3.660357986449e+03 
       2.966115459180e-03       3.781295374913e+03 
       3.082587672737e-03       3.901313858012e+03 
       3.199932423613e-03       4.020304611676e+03 
       3.318074734348e-03       4.138172272063e+03 
       3.436947005831e-03       4.254836600016e+03 
       3.556488288482e-03       4.370225603837e+03 
       3.676643609232e-03       4.484279060517e+03 
       3.797363356405e-03       4.596945925176e+03 
       3.918602721864e-03       4.708181564111e+03 
       4.040321198061e-03       4.817950061940e+03 
       4.162482126580e-03       4.926220087896e+03 
       4.285052294220e-03       5.032967644981e+03 
       4.408001572485e-03       5.138170535164e+03 
       4.531302596330e-03       5.241815218009e+03 
       4.654930478211e-03       5.343888855735e+03 
       4.778862553709e-03       5.444381302556e+03 
       4.903078155291e-03       5.543289714263e+03 
       5.027558411092e-03       5.640608506771e+03 
       5.152286065884e-03       5.736338145582e+03 
       5.277245321706e-03       5.830480640948e+03 
       5.402421695891e-03       5.923037431944e+03 
       5.527801894504e-03       6.014014170510e+03 
       5.653373699384e-03       6.103417537904e+03 
       5.779125867261e-03       6.191250839702e+03 
       5.905048039522e-03       6.277530680326e+03 
       6.031130661443e-03       6.362263351855e+03 
       6.157364909789e-03       6.445458376270e+03 
       6.283742627834e-03       6.527254575230e+03 
       6.410256266992e-03       6.607425891506e+03 
       6.536898834291e-03       6.686047714755e+03 
       6.663663845073e-03       6.763092384572e+03 
       6.790545280323e-03       6.838690545580e+03 
       6.917537548149e-03       6.912911233299e+03 
       7.044635448948e-03       6.985659170196e+03 
       7.171834143873e-03       7.056992820410e+03 
       7.299129126258e-03       7.126976776065e+03 
       7.426516195686e-03       7.195433532607e+03 
       7.553991434426e-03       7.262492216842e+03 
       7.681551186009e-03       7.328170249895e+03 
       7.809192035713e-03       7.392481121312e+03 
       7.936910792773e-03       7.455433129694e+03 
       8.064704474151e-03       7.517044525038e+03 
       8.192570289696e-03       7.577323634535e+03 
       8.320505628588e-03       7.636310920189e+03 
       8.448508046912e-03       7.693983372230e+03 
       8.576575256278e-03       7.750370390488e+03 
       8.704705113379e-03       7.805481579146e+03 
       8.832895610408e-03       7.859338309510e+03 
       8.961144866240e-03       7.911949861411e+03 
       9.089451118330e-03       7.963335665025e+03 
       9.217812715251e-03       8.013497260322e+03 
       9.346228109811e-03       8.062462247753e+03 
       9.474695852719e-03       8.110236368389e+03 
       9.603214586725e-03       8.156834055413e+03 
       9.731783041215e-03       8.202264018397e+03 
       9.860400027212e-03       8.246536686128e+03 
       9.989064432756e-03       8.289709648431e+03 
       1.011777521862e-02       8.331707187230e+03 
       1.024653141436e-02       8.372664836414e+03 
       1.037533211462e-02       8.412478639387e+03 
       1.050417647576e-02       8.451231379945e+03 
       1.063306371264e-02       8.488894024133e+03 
       1.076199309577e-02       8.525479100835e+03 
       1.089096394852e-02       8.561064700944e+03 
       1.101997564462e-02       8.595596213776e+03 
       1.114902760579e-02       8.629095731181e+03 
       1.127811929959e-02       8.661585854664e+03 
       1.140725023735e-02       8.693054684648e+03 
       1.153641997234e-02       8.723588770874e+03 
       1.166562809792e-02       8.753099579723e+03 
       1.179487424601e-02       8.781689189782e+03 
       1.192415808549e-02       8.809305277431e+03 
       1.205347932085e-02       8.835941830536e+03 
       1.218283769081e-02       8.861722265723e+03 
       1.231223296716e-02       8.886543979194e+03 
       1.244166495360e-02       8.910466720388e+03 
       1.257113348468e-02       8.933482974833e+03 
       1.270063842482e-02       8.955610378781e+03 
       1.283017966742e-02       8.976870864789e+03 
       1.295975713400e-02       8.997266485688e+03 
       1.308937077343e-02       9.016800612813e+03 
       1.321902056121e-02       9.035463273006e+03 
       1.334870649878e-02       9.053354361383e+03 
       1.347842861295e-02       9.070355167885e+03 
       1.360818695531e-02       9.086613617410e+03 
       1.373798160168e-02       9.101991902706e+03 
       1.386781265170e-02       9.116344010704e+03 
       1.399768022835e-02       9.130458375389e+03 
       1.412758447755e-02       9.143559185280e+03 
       1.425752556784e-02       9.155821946248e+03 
       1.438750369001e-02       9.167414767037e+03 
       1.451751905686e-02       9.178173427577e+03 
       1.464757190290e-02       9.188291487307e+03 
       1.477766248414e-02       9.197295703374e+03 
       1.490779107789e-02       9.205961003663e+03 
       1.503795798261e-02       9.213856710633e+03 
       1.516816351773e-02       9.221395259827e+03 
       1.529840802355e-02       9.227928996681e+03 
       1.542869186115e-02       9.233735849189e+03 
       1.555901541234e-02       9.238915240832e+03 
       1.568937907958e-02       9.243434949025e+03 
       1.581978328595e-02       9.247299558440e+03 
       1.595022847519e-02       9.250526941939e+03 
       1.608071511169e-02       9.253105269275e+03 
       1.621124368054e-02       9.254840285131e+03 
       1.634181468757e-02       9.256392775995e+03 
       1.647242865946e-02       9.257164436163e+03 
       1.660308614380e-02       9.257242885424e+03 
       1.673378770924e-02       9.256546322170e+03 
       1.686453394560e-02       9.255710943729e+03 
       1.699532546402e-02       9.254089990996e+03 
       1.712616289717e-02       9.251919842151e+03 
       1.725704689936e-02       9.249112280951e+03 
       1.738797814682e-02       9.245784345025e+03 
       1.751895733789e-02       9.241941526014e+03 
       1.764998519323e-02       9.237573014553e+03 
       1.778106245613e-02       9.232589244529e+03 
       1.791218989272e-02       9.227184286596e+03 
       1.804336829232e-02       9.221149826714e+03 
       1.817459846769e-02       9.214736616007e+03 
       1.830588125539e-02       9.207758977354e+03 
       1.843721751609e-02       9.200245434993e+03 
       1.856860813494e-02       9.192283842915e+03 
       1.870005402192e-02       9.183874751657e+03 
       1.883155611228e-02       9.174975777011e+03 
       1.896311536687e-02       9.165624725689e+03 
       1.909473277263e-02       9.155804758180e+03 
       1.922640934299e-02       9.145563013303e+03 
       1.935814611835e-02       9.134863845153e+03 
       1.948994416652e-02       9.123768803394e+03 
       1.962180458326e-02       9.111964171261e+03 
       1.975372849277e-02       9.100195546990e+03 
       1.988571704821e-02       9.087779610572e+03 
       2.001777143227e-02       9.074772955093e+03 
       2.014989285773e-02       9.061790770887e+03 
       2.028208256804e-02       9.048194680108e+03 
       2.041434183795e-02       9.034209610062e+03 
       2.054667197413e-02       9.019856792766e+03 
       2.067907431580e-02       9.004940616587e+03 
       2.081155023545e-02       8.990092495207e+03 
       2.094410113948e-02       8.974429667857e+03 
       2.107672846898e-02       8.958595760621e+03 
       2.120943370039e-02       8.942440625816e+03 
       2.134221834634e-02       8.926200837081e+03 
       2.147508395641e-02       8.909180541573e+03 
       2.160803211792e-02       8.892002976338e+03 
       2.174106445681e-02       8.874538284796e+03 
       2.187418263849e-02       8.856976943145e+03 
       2.200738836870e-02       8.838646696200e+03 
       2.214068339451e-02       8.820461909984e+03 
       2.227406950518e-02       8.801715370383e+03 
       2.240754853321e-02       8.782582693702e+03 
       2.254112235530e-02       8.763278353446e+03 
       2.267479289344e-02       8.743972262540e+03 
       2.280856211593e-02       8.724120906872e+03 
       2.294243203855e-02       8.703891940461e+03 
       2.307640472564e-02       8.683592151942e+03 
       2.321048229134e-02       8.662974221499e+03 
       2.334466690073e-02       8.642120607933e+03 
       2.347896077117e-02       8.620951681808e+03 
       2.361336617354e-02       8.599622007174e+03 
       2.374788543358e-02       8.577942179419e+03 
       2.388252093326e-02       8.556091611293e+03 
       2.401727511225e-02       8.534134679148e+03 
       2.415215046930e-02       8.511932205095e+03 
       2.428714956383e-02       8.489313742054e+03 
       2.442227501746e-02       8.466749046598e+03 
       2.455752951561e-02       8.443722672137e+03 
       2.469291580917e-02       8.420679883391e+03 
       2.482843671625e-02       8.397408014732e+03 
       2.496409512388e-02       8.373805574903e+03 
       2.509989398993e-02       8.350135994899e+03 
       2.523583634493e-02       8.326329454646e+03 
       2.537192529406e-02       8.302366635527e+03 
       2.550816401916e-02       8.278152519965e+03 
       2.564455578081e-02       8.253752443371e+03 
       2.578110392052e-02       8.229242141570e+03 
       2.591781186292e-02       8.204605338564e+03 
       2.605468311806e-02       8.179703373309e+03 
       2.619172128385e-02       8.154691552556e+03 
       2.632893004847e-02       8.129554431960e+03 
       2.646631319295e-02       8.104263067437e+03 
       2.660387459382e-02       8.078917363946e+03 
       2.674161822580e-02       8.053359349760e+03 
       2.687954816469e-02       8.027734380503e+03 
       2.701766859025e-02       8.001868593370e+03 
       2.715598378926e-02       7.975964571437e+03 
       2.729449815867e-02       7.949918165508e+03 
       2.743321620883e-02       7.923764194266e+03 
       2.757214256691e-02       7.897529279823e+03 
       2.771128198036e-02       7.871169248930e+03 
       2.785063932056e-02       7.844729634811e+03 
       2.799021958658e-02       7.818150713526e+03 
       2.813002790911e-02       7.791491862305e+03 
       2.827006955447e-02       7.764716648890e+03 
       2.841034992888e-02       7.737888799752e+03 
       2.855087458276e-02       7.710979442269e+03 
       2.869164921534e-02       7.684021564567e+03 
       2.883267967932e-02       7.656981292545e+03 
       2.897397198579e-02       7.629806740116e+03 
       2.911553230935e-02       7.602564204376e+03 
       2.925736699339e-02       7.575338207970e+03 
       2.939948255557e-02       7.547901780184e+03 
       2.954188569362e-02       7.520507962289e+03 
       2.968458329124e-02       7.493114162163e+03 
       2.982758242437e-02       7.465593110626e+03 
       2.997089036763e-02       7.438004851120e+03 
       3.011451460107e-02       7.410370435577e+03 
       3.025846281720e-02       7.382796995916e+03 
       3.040274292831e-02       7.355023877649e+03 
       3.054736307413e-02       7.327292273865e+03 
       3.069233162977e-02       7.299440558315e+03 
       3.083765721406e-02       7.271632315845e+03 
       3.098334869824e-02       7.243777985484e+03 
       3.112941521502e-02       7.215902020517e+03 
       3.127586616807e-02       7.188078326474e+03 
       3.142271124190e-02       7.160119167624e+03 
       3.156996041225e-02       7.132164592264e+03 
       3.171762395693e-02       7.104096911341e+03 
       3.186571246714e-02       7.076070069917e+03 
       3.201423685934e-02       7.048088782029e+03 
       3.216320838771e-02       7.020040771774e+03 
       3.231263865716e-02       6.991963686389e+03 
       3.246253963702e-02       6.963818141828e+03 
       3.261292367531e-02       6.935785915208e+03 
       3.276380351383e-02       6.907663702747e+03 
       3.291519230392e-02       6.879634087711e+03 
       3.306710362299e-02       6.851503716226e+03 
       3.321955149202e-02       6.823365539676e+03 
       3.337255039376e-02       6.795317584586e+03 
       3.352611529207e-02       6.767169902878e+03 
       3.368026165214e-02       6.739077945520e+03 
       3.383500546180e-02       6.710975553967e+03 
       3.399036325404e-02       6.682855989701e+03 
       3.414635213062e-02       6.654827668991e+03 
       3.430298978714e-02       6.626689341870e+03 
       3.446029453928e-02       6.598657268906e+03 
       3.461828535071e-02       6.570609151216e+03 
       3.477698186243e-02       6.542563171604e+03 
       3.493640442385e-02       6.514441443371e+03 
       3.509657412563e-02       6.486379751114e+03 
       3.525751283445e-02       6.458349697249e+03 
       3.541924322986e-02       6.430377173261e+03 
       3.558178884325e-02       6.402363014397e+03 
       3.574517409927e-02       6.374405915981e+03 
       3.590942435966e-02       6.346469333909e+03 
       3.607456596995e-02       6.318439319288e+03 
       3.624062630893e-02       6.290495146665e+03 
       3.640763384131e-02       6.262592032176e+03 
       3.657561817383e-02       6.234717511772e+03 
       3.674461011487e-02       6.206795229451e+03 
       3.691464173810e-02       6.178926424093e+03 
       3.708574645034e-02       6.151066045409e+03 
       3.725795906393e-02       6.123241743368e+03 
       3.743131587419e-02       6.095427852667e+03 
       3.760585474210e-02       6.067581026594e+03 
       3.778161518285e-02       6.039796866564e+03 
       3.795863846075e-02       6.012008093914e+03 
       3.813696769089e-02       5.984258904002e+03 
       3.831664794829e-02       5.956513718146e+03 
       3.849772638517e-02       5.928802206056e+03 
       3.868025235698e-02       5.901066617861e+03 
       3.886427755821e-02       5.873403041680e+03 
       3.904985616849e-02       5.845668755805e+03 
       3.923704501047e-02       5.817982940504e+03 
       3.942590372007e-02       5.790319318661e+03 
       3.961649493067e-02       5.762657499318e+03 
       3.980888447248e-02       5.735058306850e+03 
       4.000314158855e-02       5.707412417255e+03 
       4.019933916918e-02       5.679704634396e+03 
       4.039755400655e-02       5.652075771018e+03 
       4.059786707184e-02       5.624393743429e+03 
       4.080036381697e-02       5.596771204177e+03 
       4.100513450389e-02       5.569166666282e+03 
       4.121227456420e-02       5.541470661662e+03 
       4.142188499274e-02       5.513816291329e+03 
       4.163407277876e-02       5.486158145075e+03 
       4.184895137926e-02       5.458447317556e+03 
       4.206664123921e-02       5.430729406445e+03 
       4.228727036457e-02       5.403006652822e+03 
       4.251097495433e-02       5.375246413434e+03 
       4.273790009899e-02       5.347471534540e+03 
       4.296820055404e-02       5.319655858949e+03 
       4.320204159795e-02       5.291793752384e+03 
       4.343959998603e-02       5.263921244408e+03 
       4.368106501296e-02       5.235977600594e+03 
       4.392663969901e-02       5.207989837918e+03 
       4.417654211731e-02       5.179934434933e+03 
       4.443100688244e-02       5.151828646285e+03 
       4.469028682398e-02       5.123654078265e+03 
       4.495465487281e-02       5.095396052987e+03 
       4.522440619265e-02       5.067061758414e+03 
       4.549986059559e-02       5.038642070157e+03 
       4.578136528681e-02       5.010109859323e+03 
       4.606929799297e-02       4.981436164646e+03 
       4.636407053859e-02       4.952693217007e+03 
       4.666613294781e-02       4.923802639834e+03 
       4.697597816433e-02       4.894757419219e+03 
       4.729414750147e-02       4.865514725521e+03 
       4.762123695813e-02       4.836176215022e+03 
       4.795790456563e-02       4.806617085590e+03 
       4.830487896693e-02       4.776843692764e+03 
       4.866296947568e-02       4.746866088281e+03 
       4.903307791982e-02       4.716587155817e+03 
       4.941621264686e-02       4.686126600823e+03 
       4.981350515961e-02       4.655299231972e+03 
       5.022622996750e-02       4.624190932221e+03 
       5.065582838639e-02       4.592735947823e+03 
       5.110393720850e-02       4.560784265077e+03 
       5.157242340445e-02       4.528428519091e+03 
       5.206342632499e-02       4.495567517016e+03 
       5.257940925760e-02       4.462130183136e+03 
       5.312322267796e-02       4.428107915781e+03 
       5.369818213413e-02       4.393276539584e+03 
       5.430816441386e-02       4.357647631344e+03 
       5.495772644689e-02       4.321114777029e+03 
       5.565225219015e-02       4.283295529718e+03 
       5.639813329898e-02       4.244345360827e+03 
       5.720298917842e-02       4.203648522533e+03 
       5.807592995290e-02       4.161067620174e+03 
       5.902785987305e-02       4.116259311552e+03 
       6.007180476559e-02       4.068325281497e+03 
       6.122321857671e-02       4.016795713842e+03 
       6.250017069165e-02       3.960620812588e+03 
