# Matter power spectrum P(k) at redshift z=0
# for k=1.04783e-05 to 106.477 h/Mpc,
# number of wavenumbers equal to 622
#    1:k (h/Mpc)              2:P (Mpc/h)^3        
       1.047825021619e-05       4.996559449685e+01 
       2.343794199312e-05       1.083867199694e+02 
       3.644367066324e-05       1.657167302637e+02 
       4.953085910902e-05       2.226029464687e+02 
       6.273552237403e-05       2.794100239969e+02 
       7.609459272162e-05       3.364091770698e+02 
       8.964625519788e-05       3.938310713483e+02 
       1.034302982125e-04       4.518873897700e+02 
       1.174884836857e-04       5.107818786727e+02 
       1.318649413429e-04       5.707169900383e+02 
       1.466065917440e-04       6.318984731543e+02 
       1.617636025641e-04       6.945389278820e+02 
       1.773898824500e-04       7.588608262233e+02 
       1.935436163708e-04       8.250992567860e+02 
       2.102878456686e-04       8.935045426138e+02 
       2.276910948485e-04       9.643448346498e+02 
       2.458280453438e-04       1.037908687336e+03 
       2.647802538195e-04       1.114507658040e+03 
       2.846369087365e-04       1.194478904924e+03 
       3.054956135381e-04       1.278187723159e+03 
       3.274631775372e-04       1.366029951334e+03 
       3.506563859363e-04       1.458434108190e+03 
       3.752027080307e-04       1.555863106405e+03 
       4.012408872633e-04       1.658815272601e+03 
       4.289213384983e-04       1.767824402454e+03 
       4.584062573179e-04       1.883458459933e+03 
       4.898693248886e-04       2.006316470161e+03 
       5.234948729042e-04       2.137023112492e+03 
       5.594763609147e-04       2.276220531056e+03 
       5.980140194561e-04       2.424556802357e+03 
       6.393115348484e-04       2.582670844750e+03 
       6.835717036344e-04       2.751173583264e+03 
       7.309910726779e-04       2.930625680552e+03 
       7.817537055470e-04       3.121512657504e+03 
       8.360243679255e-04       3.324218785139e+03 
       8.939415828171e-04       3.539001591833e+03 
       9.556111366399e-04       3.765969521673e+03 
       1.021100680625e-03       4.005065124841e+03 
       1.090436034954e-03       4.256055988220e+03 
       1.163599652760e-03       4.518535119689e+03 
       1.240531454790e-03       4.791930966608e+03 
       1.321131950357e-03       5.075526658565e+03 
       1.405267280218e-03       5.368463292248e+03 
       1.492775612116e-03       5.669819253904e+03 
       1.583474226069e-03       5.978628660569e+03 
       1.677166647844e-03       6.293882973327e+03 
       1.773649300224e-03       6.614574422492e+03 
       1.872717302458e-03       6.939718788434e+03 
       1.974169217792e-03       7.268373020994e+03 
       2.077810696797e-03       7.599648240666e+03 
       2.183457074155e-03       7.932718908306e+03 
       2.290935045269e-03       8.266825196606e+03 
       2.400083581612e-03       8.601278023363e+03 
       2.510754249390e-03       8.935454344603e+03 
       2.622811084300e-03       9.268797193478e+03 
       2.736130154201e-03       9.600810600362e+03 
       2.850598917232e-03       9.931056499685e+03 
       2.966115459180e-03       1.025914776270e+04 
       3.082587672737e-03       1.058474712689e+04 
       3.199932423613e-03       1.090755909200e+04 
       3.318074734348e-03       1.122732492475e+04 
       3.436947005831e-03       1.154382697502e+04 
       3.556488288482e-03       1.185686968803e+04 
       3.676643609232e-03       1.216628983358e+04 
       3.797363356405e-03       1.247194891486e+04 
       3.918602721864e-03       1.277372567951e+04 
       4.040321198061e-03       1.307152260443e+04 
       4.162482126580e-03       1.336525430037e+04 
       4.285052294220e-03       1.365485617409e+04 
       4.408001572485e-03       1.394026748688e+04 
       4.531302596330e-03       1.422145189570e+04 
       4.654930478211e-03       1.449837434582e+04 
       4.778862553709e-03       1.477098245346e+04 
       4.903078155291e-03       1.503930507634e+04 
       5.027558411092e-03       1.530331819284e+04 
       5.152286065884e-03       1.556300592988e+04 
       5.277245321706e-03       1.581840233078e+04 
       5.402421695891e-03       1.606954821963e+04 
       5.527801894504e-03       1.631638963905e+04 
       5.653373699384e-03       1.655894187221e+04 
       5.779125867261e-03       1.679670932026e+04 
       5.905048039522e-03       1.703074843443e+04 
       6.031130661443e-03       1.726058917821e+04 
       6.157364909789e-03       1.748620406127e+04 
       6.283742627834e-03       1.770768758193e+04 
       6.410256266992e-03       1.792505208732e+04 
       6.536898834291e-03       1.813815492862e+04 
       6.663663845073e-03       1.834741817226e+04 
       6.790545280323e-03       1.855259037988e+04 
       6.917537548149e-03       1.875433950321e+04 
       7.044635448948e-03       1.895158108696e+04 
       7.171834143873e-03       1.914512503840e+04 
       7.299129126258e-03       1.933489140570e+04 
       7.426516195686e-03       1.952067674370e+04 
       7.553991434426e-03       1.970269185363e+04 
       7.681551186009e-03       1.988077157223e+04 
       7.809192035713e-03       2.005534992342e+04 
       7.936910792773e-03       2.022603521952e+04 
       8.064704474151e-03       2.039321525422e+04 
       8.192570289696e-03       2.055668353026e+04 
       8.320505628588e-03       2.071744482567e+04 
       8.448508046912e-03       2.087390614341e+04 
       8.576575256278e-03       2.102690445194e+04 
       8.704705113379e-03       2.117640738837e+04 
       8.832895610408e-03       2.132254060187e+04 
       8.961144866240e-03       2.146534800307e+04 
       9.089451118330e-03       2.160476990616e+04 
       9.217812715251e-03       2.174078475319e+04 
       9.346228109811e-03       2.187363967084e+04 
       9.474695852719e-03       2.200328620003e+04 
       9.603214586725e-03       2.212972568860e+04 
       9.731783041215e-03       2.225302987797e+04 
       9.860400027212e-03       2.237229834120e+04 
       9.989064432756e-03       2.249022663073e+04 
       1.011777521862e-02       2.260349770991e+04 
       1.024653141436e-02       2.271534664889e+04 
       1.037533211462e-02       2.282333061388e+04 
       1.050417647576e-02       2.292842781200e+04 
       1.063306371264e-02       2.303061417758e+04 
       1.076199309577e-02       2.312913601814e+04 
       1.089096394852e-02       2.322640970676e+04 
       1.101997564462e-02       2.332019016731e+04 
       1.114902760579e-02       2.341102704798e+04 
       1.127811929959e-02       2.349910624138e+04 
       1.140725023735e-02       2.358375294691e+04 
       1.153641997234e-02       2.366731623664e+04 
       1.166562809792e-02       2.374659072749e+04 
       1.179487424601e-02       2.382497877441e+04 
       1.192415808549e-02       2.389990221320e+04 
       1.205347932085e-02       2.397150466400e+04 
       1.218283769081e-02       2.404209785536e+04 
       1.231223296716e-02       2.410938958774e+04 
       1.244166495360e-02       2.417444142670e+04 
       1.257113348468e-02       2.423680846043e+04 
       1.270063842482e-02       2.429678246651e+04 
       1.283017966742e-02       2.435448585174e+04 
       1.295975713400e-02       2.440993471198e+04 
       1.308937077343e-02       2.446283856305e+04 
       1.321902056121e-02       2.451266763767e+04 
       1.334870649878e-02       2.456209726582e+04 
       1.347842861295e-02       2.460732644654e+04 
       1.360818695531e-02       2.465232776900e+04 
       1.373798160168e-02       2.469324826924e+04 
       1.386781265170e-02       2.473259791787e+04 
       1.399768022835e-02       2.477018877352e+04 
       1.412758447755e-02       2.480672954802e+04 
       1.425752556784e-02       2.483897945016e+04 
       1.438750369001e-02       2.487129976013e+04 
       1.451751905686e-02       2.489989630306e+04 
       1.464757190290e-02       2.492734327719e+04 
       1.477766248414e-02       2.495224027141e+04 
       1.490779107789e-02       2.497619167854e+04 
       1.503795798261e-02       2.499711942298e+04 
       1.516816351773e-02       2.501788557429e+04 
       1.529840802355e-02       2.503550987245e+04 
       1.542869186115e-02       2.505049777767e+04 
       1.555901541234e-02       2.506448095029e+04 
       1.568937907958e-02       2.507679992314e+04 
       1.581978328595e-02       2.508729305229e+04 
       1.595022847519e-02       2.509629431443e+04 
       1.608071511169e-02       2.510278901776e+04 
       1.621124368054e-02       2.510819722934e+04 
       1.634181468757e-02       2.511176503180e+04 
       1.647242865946e-02       2.511488131878e+04 
       1.660308614380e-02       2.511415701420e+04 
       1.673378770924e-02       2.511281267585e+04 
       1.686453394560e-02       2.510999617114e+04 
       1.699532546402e-02       2.510572983559e+04 
       1.712616289717e-02       2.510087343172e+04 
       1.725704689936e-02       2.509223289618e+04 
       1.738797814682e-02       2.508322941423e+04 
       1.751895733789e-02       2.507281220765e+04 
       1.764998519323e-02       2.506173340922e+04 
       1.778106245613e-02       2.504744873338e+04 
       1.791218989272e-02       2.503363545949e+04 
       1.804336829232e-02       2.501648444790e+04 
       1.817459846769e-02       2.499973713763e+04 
       1.830588125539e-02       2.498076821662e+04 
       1.843721751609e-02       2.495968791341e+04 
       1.856860813494e-02       2.493818227002e+04 
       1.870005402192e-02       2.491529652092e+04 
       1.883155611228e-02       2.489114482550e+04 
       1.896311536687e-02       2.486574681550e+04 
       1.909473277263e-02       2.483915754329e+04 
       1.922640934299e-02       2.481137215776e+04 
       1.935814611835e-02       2.478246551233e+04 
       1.948994416652e-02       2.475298096904e+04 
       1.962180458326e-02       2.472122623253e+04 
       1.975372849277e-02       2.468876329328e+04 
       1.988571704821e-02       2.465480321578e+04 
       2.001777143227e-02       2.462027874593e+04 
       2.014989285773e-02       2.458436974892e+04 
       2.028208256804e-02       2.454740070060e+04 
       2.041434183795e-02       2.450943506007e+04 
       2.054667197413e-02       2.447039884826e+04 
       2.067907431580e-02       2.443050362667e+04 
       2.081155023545e-02       2.439034085351e+04 
       2.094410113948e-02       2.434770069652e+04 
       2.107672846898e-02       2.430501489496e+04 
       2.120943370039e-02       2.426135560763e+04 
       2.134221834634e-02       2.421702855846e+04 
       2.147508395641e-02       2.417067941980e+04 
       2.160803211792e-02       2.412451219752e+04 
       2.174106445681e-02       2.407711816275e+04 
       2.187418263849e-02       2.402917533897e+04 
       2.200738836870e-02       2.397973565715e+04 
       2.214068339451e-02       2.392955211587e+04 
       2.227406950518e-02       2.387886029827e+04 
       2.240754853321e-02       2.382767172978e+04 
       2.254112235530e-02       2.377526185723e+04 
       2.267479289344e-02       2.372268680307e+04 
       2.280856211593e-02       2.366829813220e+04 
       2.294243203855e-02       2.361378860348e+04 
       2.307640472564e-02       2.355875699749e+04 
       2.321048229134e-02       2.350297805797e+04 
       2.334466690073e-02       2.344590567499e+04 
       2.347896077117e-02       2.338861154317e+04 
       2.361336617354e-02       2.333070181761e+04 
       2.374788543358e-02       2.327205176960e+04 
       2.388252093326e-02       2.321277963854e+04 
       2.401727511225e-02       2.315305896665e+04 
       2.415215046930e-02       2.309309423223e+04 
       2.428714956383e-02       2.303159692772e+04 
       2.442227501746e-02       2.297015635315e+04 
       2.455752951561e-02       2.290790440776e+04 
       2.469291580917e-02       2.284529296466e+04 
       2.482843671625e-02       2.278207669453e+04 
       2.496409512388e-02       2.271831337466e+04 
       2.509989398993e-02       2.265408908479e+04 
       2.523583634493e-02       2.258944041265e+04 
       2.537192529406e-02       2.252424839485e+04 
       2.550816401916e-02       2.245860485625e+04 
       2.564455578081e-02       2.239246500709e+04 
       2.578110392052e-02       2.232594584052e+04 
       2.591781186292e-02       2.225927063560e+04 
       2.605468311806e-02       2.219155339050e+04 
       2.619172128385e-02       2.212374819145e+04 
       2.632893004847e-02       2.205577824489e+04 
       2.646631319295e-02       2.198703692744e+04 
       2.660387459382e-02       2.191815656694e+04 
       2.674161822580e-02       2.184882363548e+04 
       2.687954816469e-02       2.177944253771e+04 
       2.701766859025e-02       2.170920668509e+04 
       2.715598378926e-02       2.163889354157e+04 
       2.729449815867e-02       2.156826535835e+04 
       2.743321620883e-02       2.149726205247e+04 
       2.757214256691e-02       2.142632237643e+04 
       2.771128198036e-02       2.135463741079e+04 
       2.785063932056e-02       2.128291167488e+04 
       2.799021958658e-02       2.121073815265e+04 
       2.813002790911e-02       2.113849532845e+04 
       2.827006955447e-02       2.106587567470e+04 
       2.841034992888e-02       2.099309507672e+04 
       2.855087458276e-02       2.092023942462e+04 
       2.869164921534e-02       2.084693614561e+04 
       2.883267967932e-02       2.077368064959e+04 
       2.897397198579e-02       2.069997321768e+04 
       2.911553230935e-02       2.062600264994e+04 
       2.925736699339e-02       2.055211439357e+04 
       2.939948255557e-02       2.047772278947e+04 
       2.954188569362e-02       2.040340047370e+04 
       2.968458329124e-02       2.032909504462e+04 
       2.982758242437e-02       2.025443747892e+04 
       2.997089036763e-02       2.017963071595e+04 
       3.011451460107e-02       2.010460898678e+04 
       3.025846281720e-02       2.002972793627e+04 
       3.040274292831e-02       1.995442970738e+04 
       3.054736307413e-02       1.987923839176e+04 
       3.069233162977e-02       1.980362412041e+04 
       3.083765721406e-02       1.972815504150e+04 
       3.098334869824e-02       1.965259586041e+04 
       3.112941521502e-02       1.957696162665e+04 
       3.127586616807e-02       1.950127382737e+04 
       3.142271124190e-02       1.942561660925e+04 
       3.156996041225e-02       1.934973149931e+04 
       3.171762395693e-02       1.927362957532e+04 
       3.186571246714e-02       1.919759412089e+04 
       3.201423685934e-02       1.912168250726e+04 
       3.216320838771e-02       1.904563288421e+04 
       3.231263865716e-02       1.896947510348e+04 
       3.246253963702e-02       1.889305496017e+04 
       3.261292367531e-02       1.881700460307e+04 
       3.276380351383e-02       1.874071325385e+04 
       3.291519230392e-02       1.866468527816e+04 
       3.306710362299e-02       1.858833173000e+04 
       3.321955149202e-02       1.851201465394e+04 
       3.337255039376e-02       1.843595002399e+04 
       3.352611529207e-02       1.835955457688e+04 
       3.368026165214e-02       1.828331426240e+04 
       3.383500546180e-02       1.820708528470e+04 
       3.399036325404e-02       1.813079721291e+04 
       3.414635213062e-02       1.805481939621e+04 
       3.430298978714e-02       1.797841206022e+04 
       3.446029453928e-02       1.790229556452e+04 
       3.461828535071e-02       1.782628538240e+04 
       3.477698186243e-02       1.775018508270e+04 
       3.493640442385e-02       1.767386482561e+04 
       3.509657412563e-02       1.759774612809e+04 
       3.525751283445e-02       1.752170234169e+04 
       3.541924322986e-02       1.744583822366e+04 
       3.558178884325e-02       1.736980377275e+04 
       3.574517409927e-02       1.729394453256e+04 
       3.590942435966e-02       1.721816475100e+04 
       3.607456596995e-02       1.714211126079e+04 
       3.624062630893e-02       1.706629912805e+04 
       3.640763384131e-02       1.699058630342e+04 
       3.657561817383e-02       1.691504665286e+04 
       3.674461011487e-02       1.683920663880e+04 
       3.691464173810e-02       1.676363644949e+04 
       3.708574645034e-02       1.668800568947e+04 
       3.725795906393e-02       1.661257911438e+04 
       3.743131587419e-02       1.653714775632e+04 
       3.760585474210e-02       1.646151808991e+04 
       3.778161518285e-02       1.638612783833e+04 
       3.795863846075e-02       1.631072452246e+04 
       3.813696769089e-02       1.623544940311e+04 
       3.831664794829e-02       1.616016367292e+04 
       3.849772638517e-02       1.608498158746e+04 
       3.868025235698e-02       1.600974969945e+04 
       3.886427755821e-02       1.593475568549e+04 
       3.904985616849e-02       1.585944680024e+04 
       3.923704501047e-02       1.578432051129e+04 
       3.942590372007e-02       1.570926034154e+04 
       3.961649493067e-02       1.563424970120e+04 
       3.980888447248e-02       1.555938459316e+04 
       4.000314158855e-02       1.548437713060e+04 
       4.019933916918e-02       1.540918069900e+04 
       4.039755400655e-02       1.533420650528e+04 
       4.059786707184e-02       1.525910745203e+04 
       4.080036381697e-02       1.518414040306e+04 
       4.100513450389e-02       1.510924262365e+04 
       4.121227456420e-02       1.503410927896e+04 
       4.142188499274e-02       1.495908823894e+04 
       4.163407277876e-02       1.488404829395e+04 
       4.184895137926e-02       1.480886169190e+04 
       4.206664123921e-02       1.473358318220e+04 
       4.228727036457e-02       1.465845096859e+04 
       4.251097495433e-02       1.458310102216e+04 
       4.273790009899e-02       1.450777247839e+04 
       4.296820055404e-02       1.443227554497e+04 
       4.320204159795e-02       1.435667846762e+04 
       4.343959998603e-02       1.428101931016e+04 
       4.368106501296e-02       1.420527735056e+04 
       4.392663969901e-02       1.412925081547e+04 
       4.417654211731e-02       1.405311739854e+04 
       4.443100688244e-02       1.397692748914e+04 
       4.469028682398e-02       1.390045222700e+04 
       4.495465487281e-02       1.382378492491e+04 
       4.522440619265e-02       1.374687723234e+04 
       4.549986059559e-02       1.366991807171e+04 
       4.578136528681e-02       1.359236888724e+04 
       4.606929799297e-02       1.351452474007e+04 
       4.636407053859e-02       1.343657772295e+04 
       4.666613294781e-02       1.335818622858e+04 
       4.697597816433e-02       1.327941989372e+04 
       4.729414750147e-02       1.320008134611e+04 
       4.762123695813e-02       1.312043486087e+04 
       4.795790456563e-02       1.304021846391e+04 
       4.830487896693e-02       1.295942551804e+04 
       4.866296947568e-02       1.287807393491e+04 
       4.903307791982e-02       1.279631034732e+04 
       4.941621264686e-02       1.271344796329e+04 
       4.981350515961e-02       1.262976863544e+04 
       5.022622996750e-02       1.254544346461e+04 
       5.065582838639e-02       1.245995251616e+04 
       5.110393720850e-02       1.237340388323e+04 
       5.157242340445e-02       1.228559120217e+04 
       5.206342632499e-02       1.219623673279e+04 
       5.257940925760e-02       1.210535292115e+04 
       5.312322267796e-02       1.201340321253e+04 
       5.369818213413e-02       1.191855081163e+04 
       5.430816441386e-02       1.182201842235e+04 
       5.495772644689e-02       1.172319457279e+04 
       5.565225219015e-02       1.162055572522e+04 
       5.639813329898e-02       1.151495059055e+04 
       5.720298917842e-02       1.140444811341e+04 
       5.807592995290e-02       1.128901382818e+04 
       5.902785987305e-02       1.116714869588e+04 
       6.007180476559e-02       1.103760314378e+04 
       6.122321857671e-02       1.089749591345e+04 
       6.250017069165e-02       1.074492018952e+04 
