# dimensionless total lensed [l(l+1)/2pi] C_l's
# for l=2 to 2500, i.e. number of multipoles equal to 2499
#
# -> if you prefer output in CAMB/HealPix/LensPix units/order, set 'format' to 'camb' in input file
# -> if you don't want to see such a header, set 'headers' to 'no' in input file
# -> for CMB lensing (phi), these are C_l^phi-phi for the lensing potential.
#    Remember the conversion factors:
#    C_l^dd (deflection) = l(l+1) C_l^phi-phi
#    C_l^gg (shear/convergence) = 1/4 (l(l+1))^2 C_l^phi-phi
#
# 1:l     2:TT                     3:EE                     4:TE                     5:BB                     6:phiphi                 7:TPhi                   8:Ephi               
    2       2.844837624415e-10       9.329599823365e-15       5.609258036129e-13       5.640472380517e-15       8.385946466325e-09       4.612433793229e-10      -2.239711305358e-12 
    3       2.428473432391e-10       1.323971461658e-14       4.655061132481e-13       6.049698079010e-15       5.199550264986e-09       3.284814351997e-10      -1.885334211943e-12 
    4       2.234905419087e-10       1.390364599117e-14       4.094259043562e-13       5.596449126738e-15       3.618824200200e-09       2.495169993827e-10      -1.427754938438e-12 
    5       2.124159567571e-10       1.183675354886e-14       3.531461301884e-13       4.660110682566e-15       2.699602569237e-09       1.975726332543e-10      -9.917781193792e-13 
    6       2.049876253061e-10       8.574089619437e-15       2.940024033504e-13       3.583526418338e-15       2.106339362460e-09       1.610528256215e-10      -6.185356793754e-13 
    7       2.000077505589e-10       5.505577452790e-15       2.373274641635e-13       2.597529425479e-15       1.698095861386e-09       1.341887648841e-10      -3.250021278528e-13 
    8       1.966855176704e-10       3.345493862683e-15       1.871357860567e-13       1.817729514783e-15       1.403346072126e-09       1.137281351110e-10      -1.139732543069e-13 
    9       1.945495286130e-10       2.160955178062e-15       1.460394491609e-13       1.273760183881e-15       1.181905360398e-09       9.772732901075e-11       2.076617367698e-14 
   10       1.932789431966e-10       1.664824607820e-15       1.152358124845e-13       9.440964202776e-16       1.010329499851e-09       8.497073001687e-11       9.135550944643e-14 
   11       1.926232606796e-10       1.515691437333e-15       9.471640119993e-14       7.844621634837e-16       8.509105798059e-10       7.486441126140e-11       1.127133322566e-13 
   12       1.923674516050e-10       1.486634264347e-15       8.343195826111e-14       7.465794395653e-16       7.434195757428e-10       6.634226292557e-11       1.020506707251e-13 
   13       1.924994157025e-10       1.490566745698e-15       7.943207868949e-14       7.887470084141e-16       6.551850099629e-10       5.901411430239e-11       7.276996050597e-14 
   14       1.928673429905e-10       1.525455258773e-15       8.034282999518e-14       8.794135158550e-16       5.817774360874e-10       5.300213188424e-11       3.739080047497e-14 
   15       1.934050017463e-10       1.609196977931e-15       8.396743887672e-14       9.974732161884e-16       5.200007150022e-10       4.796642129147e-11       4.302546719864e-15 
   16       1.941248543976e-10       1.744902707968e-15       8.843715170725e-14       1.130194217448e-15       4.674812457797e-10       4.349717567731e-11      -2.159790236638e-14 
   17       1.949389404593e-10       1.918802779400e-15       9.238166739751e-14       1.270819311712e-15       4.224291103942e-10       3.960008898223e-11      -3.788158996460e-14 
   18       1.958314518762e-10       2.112729591072e-15       9.510298446068e-14       1.416247966231e-15       3.833280948360e-10       3.620196051786e-11      -4.474215990658e-14 
   19       1.968373017251e-10       2.321696455180e-15       9.642577833329e-14       1.565475217420e-15       3.495590613261e-10       3.325495811080e-11      -4.375153990363e-14 
   20       1.978971738736e-10       2.545631894785e-15       9.638032019201e-14       1.718056146208e-15       3.198193565287e-10       3.065591331625e-11      -3.764742743193e-14 
   21       1.990198457138e-10       2.791992306044e-15       9.531140824767e-14       1.873865742752e-15       2.936413591152e-10       2.834357466100e-11      -2.883605683299e-14 
   22       2.001798543653e-10       3.070472497238e-15       9.372276199535e-14       2.032982061691e-15       2.703983828544e-10       2.623884999020e-11      -1.992207406889e-14 
   23       2.013834174090e-10       3.383143483993e-15       9.192913259514e-14       2.195299600805e-15       2.497704693160e-10       2.434633848729e-11      -1.240472127943e-14 
   24       2.026094267655e-10       3.728728655032e-15       9.017278503143e-14       2.360723242916e-15       2.312802694311e-10       2.267141799066e-11      -7.366611368269e-15 
   25       2.038669837178e-10       4.104984130771e-15       8.851557391605e-14       2.529180930879e-15       2.147098232293e-10       2.118614283101e-11      -4.971891693274e-15 
   26       2.051473700160e-10       4.509068875863e-15       8.689796540301e-14       2.700641042103e-15       1.997588862575e-10       1.983675873551e-11      -4.913802025308e-15 
   27       2.064540164108e-10       4.940519294769e-15       8.506239176628e-14       2.874982542832e-15       1.862487149971e-10       1.859887384889e-11      -6.539110611012e-15 
   28       2.077767712681e-10       5.399443135303e-15       8.265564838277e-14       3.052068663646e-15       1.739471819162e-10       1.745057988833e-11      -8.988516972937e-15 
   29       2.091302519099e-10       5.885981211902e-15       7.943200872358e-14       3.231710405043e-15       1.627911883398e-10       1.639447767590e-11      -1.168173846653e-14 
   30       2.105142901153e-10       6.400124469820e-15       7.513775686999e-14       3.413714232227e-15       1.526601900810e-10       1.543310250675e-11      -1.400996008762e-14 
   31       2.119094610074e-10       6.941876262785e-15       6.950985852772e-14       3.597889557644e-15       1.433467812950e-10       1.456024278411e-11      -1.536281886102e-14 
   32       2.133237461371e-10       7.512111864187e-15       6.244518145711e-14       3.784004117703e-15       1.348029751012e-10       1.376772307034e-11      -1.568637118143e-14 
   33       2.147585209379e-10       8.112046669397e-15       5.389434494531e-14       3.971811797789e-15       1.269687940779e-10       1.303934433937e-11      -1.513818814249e-14 
   34       2.162029880136e-10       8.743002387299e-15       4.383880731230e-14       4.161064260285e-15       1.197350312638e-10       1.235480538291e-11      -1.394316574689e-14 
   35       2.176654934141e-10       9.406333520671e-15       3.235961299869e-14       4.351512545782e-15       1.130645921731e-10       1.171296737703e-11      -1.237148321079e-14 
   36       2.191500774762e-10       1.010348814635e-14       1.959682746096e-14       4.542905490702e-15       1.069037041222e-10       1.111585520740e-11      -1.076260480067e-14 
   37       2.206520035050e-10       1.083581750623e-14       5.694962803427e-15       4.735000691480e-15       1.011719239696e-10       1.056281664582e-11      -9.456700004731e-15 
   38       2.221761501162e-10       1.160383173225e-14      -9.332177460772e-15       4.927604633038e-15       9.585442169469e-11       1.005268619681e-11      -8.520453188939e-15 
   39       2.237225223878e-10       1.240768987392e-14      -2.550977154198e-14       5.120546396553e-15       9.093438243808e-11       9.581812706074e-12      -7.932480417402e-15 
   40       2.252798941170e-10       1.324738469836e-14      -4.286635759449e-14       5.313667792229e-15       8.636494523303e-11       9.143109808689e-12      -7.655091208100e-15 
   41       2.268332482529e-10       1.412288887718e-14      -6.144155045277e-14       5.506795918252e-15       8.208553006309e-11       8.728366513727e-12      -7.632537474358e-15 
   42       2.283917042004e-10       1.503467788648e-14      -8.131113773309e-14       5.699648475634e-15       7.808351234372e-11       8.336778630172e-12      -7.788189619219e-15 
   43       2.299677962712e-10       1.598335835043e-14      -1.025709062758e-13       5.891898763332e-15       7.434821379765e-11       7.968707962011e-12      -8.024260250695e-15 
   44       2.315691756598e-10       1.696952482897e-14      -1.253310076783e-13       6.083199895584e-15       7.085239264281e-11       7.623213908492e-12      -8.220877307528e-15 
   45       2.331992867254e-10       1.799367976090e-14      -1.496913936451e-13       6.273210155568e-15       6.756196613883e-11       7.298588982770e-12      -8.265966633953e-15 
   46       2.348608925581e-10       1.905596585254e-14      -1.756571443598e-13       6.461681059656e-15       6.447175092350e-11       6.994416408481e-12      -8.158665735547e-15 
   47       2.365526970485e-10       2.015635288975e-14      -2.031994293113e-13       6.648393480938e-15       6.157816516825e-11       6.709939892555e-12      -7.934579747278e-15 
   48       2.382677761015e-10       2.129470546283e-14      -2.322783033936e-13       6.833133590630e-15       5.886845064291e-11       6.443399836352e-12      -7.637725780679e-15 
   49       2.399931144379e-10       2.247077791606e-14      -2.628421801167e-13       7.015693132636e-15       5.631999028061e-11       6.191960148000e-12      -7.321009058272e-15 
   50       2.417152839901e-10       2.368427829993e-14      -2.948372228039e-13       7.195860673893e-15       5.390712016627e-11       5.952558692667e-12      -7.036177787904e-15 
   51       2.434403707974e-10       2.493509240983e-14      -3.282397455137e-13       7.373391918539e-15       5.162532858787e-11       5.724900582851e-12      -6.799368713682e-15 
   52       2.451786563743e-10       2.622311183000e-14      -3.630316963949e-13       7.548031810454e-15       4.947244591319e-11       5.509150873541e-12      -6.617032321854e-15 
   53       2.469387788104e-10       2.754816848539e-14      -3.991914497441e-13       7.719522706672e-15       4.744140232978e-11       5.305052919696e-12      -6.495618172290e-15 
   54       2.487275585882e-10       2.891003283827e-14      -4.366937459453e-13       7.887604227266e-15       4.551989808857e-11       5.111898653895e-12      -6.441555914788e-15 
   55       2.505499278154e-10       3.030841789603e-14      -4.755166659560e-13       8.052030397377e-15       4.369415327882e-11       4.928771589579e-12      -6.458633434416e-15 
   56       2.524090963695e-10       3.174299653150e-14      -5.156647212992e-13       8.212626403918e-15       4.196200343825e-11       4.755414613815e-12      -6.539412056139e-15 
   57       2.543061219329e-10       3.321338530674e-14      -5.571513949214e-13       8.369245675526e-15       4.032247957948e-11       4.591525711858e-12      -6.671645441284e-15 
   58       2.562396437453e-10       3.471913749633e-14      -5.999928185593e-13       8.521754337974e-15       3.877184659114e-11       4.436485448183e-12      -6.840577835057e-15 
   59       2.582057124502e-10       3.625974151049e-14      -6.442079867530e-13       8.670031737774e-15       3.730343242438e-11       4.289337869812e-12      -7.028823672289e-15 
   60       2.601976199422e-10       3.783461931815e-14      -6.898189708595e-13       8.813970965795e-15       3.590745727922e-11       4.148771409634e-12      -7.216247183183e-15 
   61       2.622086263795e-10       3.944315154272e-14      -7.368445088293e-13       8.953474760565e-15       3.457374847400e-11       4.013476492710e-12      -7.384734728490e-15 
   62       2.642412414420e-10       4.108476289926e-14      -7.852786090071e-13       9.088440959071e-15       3.330098358127e-11       3.883355355878e-12      -7.534035932443e-15 
   63       2.662997338924e-10       4.275885322361e-14      -8.351075016380e-13       9.218774694532e-15       3.208922834326e-11       3.758551133603e-12      -7.669280802375e-15 
   64       2.683873415640e-10       4.446477177585e-14      -8.863158430684e-13       9.344393098075e-15       3.093715638288e-11       3.639088115024e-12      -7.796434920222e-15 
   65       2.705061931321e-10       4.620181650969e-14      -9.388867195770e-13       9.465225675756e-15       2.984196995073e-11       3.524864599784e-12      -7.922334290864e-15 
   66       2.726572298859e-10       4.796923334186e-14      -9.928016512058e-13       9.581214685565e-15       2.879932067203e-11       3.415645753850e-12      -8.054720190483e-15 
   67       2.748401275002e-10       4.976621542151e-14      -1.048040595592e-12       9.692315514444e-15       2.780323029359e-11       3.311056465335e-12      -8.202274014905e-15 
   68       2.770542616689e-10       5.159188450815e-14      -1.104581780814e-12       9.798489038807e-15       2.684768663376e-11       3.210698172215e-12      -8.372052628073e-15 
   69       2.793020070762e-10       5.344523235704e-14      -1.162401156042e-12       9.899676065840e-15       2.593198410394e-11       3.114542803681e-12      -8.561113063729e-15 
   70       2.815859694223e-10       5.532516608987e-14      -1.221472835947e-12       9.995818366824e-15       2.505632791573e-11       3.022606194325e-12      -8.763245573578e-15 
   71       2.839079500999e-10       5.723052386844e-14      -1.281769261302e-12       1.008686640430e-14       2.422021886810e-11       2.934827272642e-12      -8.971391904553e-15 
   72       2.862688946628e-10       5.916007370653e-14      -1.343261198442e-12       1.017277950408e-14       2.342241693841e-11       2.851064087487e-12      -9.177613663795e-15 
   73       2.886688412949e-10       6.111251228168e-14      -1.405917738722e-12       1.025352602720e-14       2.266090487344e-11       2.771089834541e-12      -9.373060683627e-15 
   74       2.911068692794e-10       6.308646374698e-14      -1.469706297973e-12       1.032908354193e-14       2.193285178041e-11       2.694588882765e-12      -9.547939386533e-15 
   75       2.935810474677e-10       6.508047854292e-14      -1.534592615963e-12       1.039943899576e-14       2.123457671802e-11       2.621152800863e-12      -9.691481150129e-15 
   76       2.960894617374e-10       6.709306995698e-14      -1.600542547721e-12       1.046458521015e-14       2.056246199046e-11       2.550380144563e-12      -9.794246041136e-15 
   77       2.986336275851e-10       6.912283412555e-14      -1.667527815829e-12       1.052450924669e-14       1.991596578494e-11       2.482205609925e-12      -9.855588943957e-15 
   78       3.012156091064e-10       7.116834985797e-14      -1.735521310976e-12       1.057920222206e-14       1.929509530775e-11       2.416623962472e-12      -9.877503767670e-15 
   79       3.038369662834e-10       7.322814242252e-14      -1.804495428766e-12       1.062866289207e-14       1.869948915741e-11       2.353589785239e-12      -9.862424850366e-15 
   80       3.064987255796e-10       7.530068313238e-14      -1.874422105921e-12       1.067289774828e-14       1.812840039007e-11       2.293015632934e-12      -9.813243212761e-15 
   81       3.092013505343e-10       7.738438893146e-14      -1.945272856481e-12       1.071192111453e-14       1.758067958500e-11       2.234770186096e-12      -9.733322811806e-15 
   82       3.119447123569e-10       7.947762198022e-14      -2.017018808009e-12       1.074575524356e-14       1.705475791003e-11       2.178676405255e-12      -9.626516794293e-15 
   83       3.147280605219e-10       8.157868924160e-14      -2.089630737787e-12       1.077443041359e-14       1.654863018701e-11       2.124509685092e-12      -9.497183750467e-15 
   84       3.175505797049e-10       8.368587706775e-14      -2.163076824485e-12       1.079798322615e-14       1.606034200093e-11       2.072054494203e-12      -9.349786511693e-15 
   85       3.204132310888e-10       8.579756245536e-14      -2.237315395590e-12       1.081645096395e-14       1.558958090461e-11       2.021289126182e-12      -9.187576520834e-15 
   86       3.233171638127e-10       8.791211956061e-14      -2.312301038434e-12       1.082987647039e-14       1.513631917990e-11       1.972228334504e-12      -9.013720144465e-15 
   87       3.262631365080e-10       9.002788650959e-14      -2.387986775678e-12       1.083830993052e-14       1.470032490928e-11       1.924866719909e-12      -8.831705838307e-15 
   88       3.292514977467e-10       9.214316557250e-14      -2.464324063110e-12       1.084180893736e-14       1.428115351262e-11       1.879177867512e-12      -8.645353384766e-15 
   89       3.322821664907e-10       9.425622333769e-14      -2.541262787459e-12       1.084043855832e-14       1.387813928400e-11       1.835113483921e-12      -8.458823130479e-15 
   90       3.353546125409e-10       9.636529088581e-14      -2.618751264198e-12       1.083427140148e-14       1.349038692848e-11       1.792602534340e-12      -8.276625223856e-15 
   91       3.384678369862e-10       9.846856396393e-14      -2.696736235348e-12       1.082338768198e-14       1.311676309884e-11       1.751550379683e-12      -8.103628852623e-15 
   92       3.416203526521e-10       1.005642031596e-13      -2.775162867289e-12       1.080787528835e-14       1.275588793240e-11       1.711837913688e-12      -7.945071481362e-15 
   93       3.448107549800e-10       1.026503562316e-13      -2.853975941845e-12       1.078782496689e-14       1.240646225310e-11       1.673350542710e-12      -7.805365996652e-15 
   94       3.480395753432e-10       1.047252285656e-13      -2.933123639243e-12       1.076331490206e-14       1.206832385312e-11       1.636071985116e-12      -7.684296855793e-15 
   95       3.513076716190e-10       1.067870236861e-13      -3.012554322698e-12       1.073442392888e-14       1.174153516768e-11       1.600003049574e-12      -7.580266255859e-15 
   96       3.546156513017e-10       1.088339225160e-13      -3.092215409832e-12       1.070123620758e-14       1.142605796090e-11       1.565132602201e-12      -7.491438084866e-15 
   97       3.579638600573e-10       1.108640838549e-13      -3.172053386853e-12       1.066384122302e-14       1.112174947023e-11       1.531437113312e-12      -7.415730658392e-15 
   98       3.613523702762e-10       1.128756448574e-13      -3.252013822743e-12       1.062233378395e-14       1.082835855084e-11       1.498880204184e-12      -7.350809456196e-15 
   99       3.647809696277e-10       1.148667215111e-13      -3.332041383447e-12       1.057681402239e-14       1.054552182002e-11       1.467412193810e-12      -7.294079858832e-15 
  100       3.682491496135e-10       1.168354091151e-13      -3.412079846055e-12       1.052738739298e-14       1.027275980160e-11       1.436969645653e-12      -7.242679884267e-15 
  101       3.717560941213e-10       1.187797827582e-13      -3.492072112991e-12       1.047416467228e-14       1.000947307032e-11       1.407474914406e-12      -7.193472924502e-15 
  102       3.753006679788e-10       1.206978977969e-13      -3.571960226199e-12       1.041726195814e-14       9.754938396242e-12       1.378835692750e-12      -7.143040482188e-15 
  103       3.788814055072e-10       1.225877903341e-13      -3.651685381329e-12       1.035680066900e-14       9.508304889157e-12       1.350944558105e-12      -7.087674907238e-15 
  104       3.824969066873e-10       1.244475277861e-13      -3.731188196961e-12       1.029290314964e-14       9.268786792728e-12       1.323704149604e-12      -7.024202807080e-15 
  105       3.861471112582e-10       1.262753673342e-13      -3.810409533155e-12       1.022567881356e-14       9.036279831952e-12       1.297107548597e-12      -6.952597600076e-15 
  106       3.898321761933e-10       1.280696198690e-13      -3.889289810434e-12       1.015523611868e-14       8.810821324914e-12       1.271167961951e-12      -6.873707981905e-15 
  107       3.935520765737e-10       1.298286028288e-13      -3.967768781410e-12       1.008168674545e-14       8.592399293826e-12       1.245893891946e-12      -6.788460609399e-15 
