# Matter power spectrum P(k) at redshift z=1
# for k=1.00085e-05 to 100.998 h/Mpc,
# number of wavenumbers equal to 585
#    1:k (h/Mpc)              2:P (Mpc/h)^3        
       1.000848347533e-05       2.176168717912e+01 
       2.253243106400e-05       4.750068735702e+01 
       3.509763554478e-05       7.274925399431e+01 
       4.773605151084e-05       9.779047126325e+01 
       6.048013023731e-05       1.227812365219e+02 
       7.336309327976e-05       1.478367711664e+02 
       8.641921432246e-05       1.730540544956e+02 
       9.968411283727e-05       1.985213310391e+02 
       1.131950631415e-04       2.243228963200e+02 
       1.269913224743e-04       2.505419515448e+02 
       1.411144817257e-04       2.772625324726e+02 
       1.556088424207e-04       3.045709708028e+02 
       1.705218234494e-04       3.325571114806e+02 
       1.859044007879e-04       3.613153975383e+02 
       2.018115830068e-04       3.909458918346e+02 
       2.183029246236e-04       4.215552717066e+02 
       2.354430782041e-04       4.532578176963e+02 
       2.533023843983e-04       4.861764076086e+02 
       2.719574966253e-04       5.204435073519e+02 
       2.914920336518e-04       5.562021553445e+02 
       3.119972485810e-04       5.936069100139e+02 
       3.335726964636e-04       6.328247279958e+02 
       3.563268745649e-04       6.740357177538e+02 
       3.803777990109e-04       7.174336963703e+02 
       4.058534689730e-04       7.632264599157e+02 
       4.328921548969e-04       8.116356409294e+02 
       4.616424311522e-04       8.628960175394e+02 
       4.922628572344e-04       9.172540987864e+02 
       5.249211976144e-04       9.749658105174e+02 
       5.597930620954e-04       1.036293093184e+03 
       5.970598509700e-04       1.101499249597e+03 
       6.369059082751e-04       1.170842932512e+03 
       6.795148280010e-04       1.244570751537e+03 
       7.250649266392e-04       1.322908638673e+03 
       7.737239912925e-04       1.406052262251e+03 
       8.256435292801e-04       1.494156998186e+03 
       8.809528674693e-04       1.587328196254e+03 
       9.397535536658e-04       1.685612527892e+03 
       1.002114569854e-03       1.788991351415e+03 
       1.068068852572e-03       1.897376862638e+03 
       1.137611516681e-03       2.010611563908e+03 
       1.210700003238e-03       2.128452002928e+03 
       1.287256149881e-03       2.250629518561e+03 
       1.367169957717e-03       2.376809927426e+03 
       1.450304648096e-03       2.506617689737e+03 
       1.536502498689e-03       2.639649644967e+03 
       1.625590932024e-03       2.775487320108e+03 
       1.717388389932e-03       2.913708342088e+03 
       1.811709638167e-03       3.053896319318e+03 
       1.908370276295e-03       3.195648954010e+03 
       2.007190352411e-03       3.338583753349e+03 
       2.107997083528e-03       3.482342749451e+03 
       2.210626753378e-03       3.626594304456e+03 
       2.314925900533e-03       3.771034805108e+03 
       2.420751926454e-03       3.915388013273e+03 
       2.527973252260e-03       4.059405896337e+03 
       2.636469141284e-03       4.202865826346e+03 
       2.746129287353e-03       4.345570870909e+03 
       2.856853249995e-03       4.487345147164e+03 
       2.968549799856e-03       4.628036966989e+03 
       3.081136221776e-03       4.767510204569e+03 
       3.194537609792e-03       4.905648163487e+03 
       3.308686177755e-03       5.042348009837e+03 
       3.423520601092e-03       5.177522815080e+03 
       3.538985399120e-03       5.311094564871e+03 
       3.655030362870e-03       5.442999744666e+03 
       3.771610030237e-03       5.573182508324e+03 
       3.888683208102e-03       5.701596791967e+03 
       4.006212539708e-03       5.828202081255e+03 
       4.124164114676e-03       5.952968547657e+03 
       4.242507118609e-03       6.075868676255e+03 
       4.361213519013e-03       6.196881261922e+03 
       4.480257784249e-03       6.315992079262e+03 
       4.599616632337e-03       6.433188872574e+03 
       4.719268806593e-03       6.548464741187e+03 
       4.839194875308e-03       6.661814944912e+03 
       4.959377052891e-03       6.773236412448e+03 
       5.079799040151e-03       6.882731822966e+03 
       5.200445881604e-03       6.990305305322e+03 
       5.321303837923e-03       7.095960174334e+03 
       5.442360271843e-03       7.199707333261e+03 
       5.563603546010e-03       7.301549577686e+03 
       5.685022931456e-03       7.401503349308e+03 
       5.806608525497e-03       7.499569848581e+03 
       5.928351178019e-03       7.595888993834e+03 
       6.050242425229e-03       7.690314367291e+03 
       6.172274430027e-03       7.782801088162e+03 
       6.294439928304e-03       7.873382283253e+03 
       6.416732180501e-03       7.962166307082e+03 
       6.539144927874e-03       8.049223129422e+03 
       6.661672352950e-03       8.134502721362e+03 
       6.784309043753e-03       8.218051173420e+03 
       6.907049961376e-03       8.299960361542e+03 
       7.029890410568e-03       8.379984039673e+03 
       7.152826013027e-03       8.458287601554e+03 
       7.275852683113e-03       8.534910330183e+03 
       7.398966605737e-03       8.609848413621e+03 
       7.522164216228e-03       8.683122646017e+03 
       7.645442181948e-03       8.754753690157e+03 
       7.768797385519e-03       8.824747402310e+03 
       7.892226909480e-03       8.893156892603e+03 
       8.015728022252e-03       8.959944819810e+03 
       8.139298165281e-03       9.025162508954e+03 
       8.262934941245e-03       9.088816422675e+03 
       8.386636103238e-03       9.150925789497e+03 
       8.510399544830e-03       9.211512067911e+03 
       8.634223290924e-03       9.270590200265e+03 
       8.758105489349e-03       9.328171541330e+03 
       8.882044403111e-03       9.384269265369e+03 
       9.006038403249e-03       9.438913797069e+03 
       9.130085962249e-03       9.492113936298e+03 
       9.254185647961e-03       9.543885484833e+03 
       9.378336117974e-03       9.594263415741e+03 
       9.502536114418e-03       9.643243439462e+03 
       9.626784459156e-03       9.690844085643e+03 
       9.751080049332e-03       9.737080539568e+03 
       9.875421853237e-03       9.781971822963e+03 
       9.999808906492e-03       9.825538596161e+03 
       1.012424030849e-02       9.867783091678e+03 
       1.024871521913e-02       9.908697477891e+03 
       1.037323285569e-02       9.948406127645e+03 
       1.049779249009e-02       9.986791246177e+03 
       1.062239344616e-02       1.002393144616e+04 
       1.074703509722e-02       1.005979425279e+04 
       1.087171686381e-02       1.009450970261e+04 
       1.099643821156e-02       1.012798414224e+04 
       1.112119864919e-02       1.016025304572e+04 
       1.124599772670e-02       1.019134315430e+04 
       1.137083503366e-02       1.022125388120e+04 
       1.149571019758e-02       1.025002318768e+04 
       1.162062288247e-02       1.027765557963e+04 
       1.174557278744e-02       1.030416040270e+04 
       1.187055964543e-02       1.032954864157e+04 
       1.199558322198e-02       1.035382834696e+04 
       1.212064331417e-02       1.037699978024e+04 
       1.224573974954e-02       1.039917652197e+04 
       1.237087238517e-02       1.042020641092e+04 
       1.249604110675e-02       1.044027335140e+04 
       1.262124582781e-02       1.045926992550e+04 
       1.274648648888e-02       1.047719336814e+04 
       1.287176305685e-02       1.049415644751e+04 
       1.299707552427e-02       1.051017481674e+04 
       1.312242390876e-02       1.052512274030e+04 
       1.324780825247e-02       1.053917513284e+04 
       1.337322862153e-02       1.055223678956e+04 
       1.349868510562e-02       1.056430167857e+04 
       1.362417781751e-02       1.057547469467e+04 
       1.374970689270e-02       1.058572710746e+04 
       1.387527248903e-02       1.059507901029e+04 
       1.400087478639e-02       1.060352885573e+04 
       1.412651398641e-02       1.061114238865e+04 
       1.425219031223e-02       1.061777962286e+04 
       1.437790400825e-02       1.062360349304e+04 
       1.450365533994e-02       1.062857386408e+04 
       1.462944459368e-02       1.063275035383e+04 
       1.475527207660e-02       1.063600178927e+04 
       1.488113811648e-02       1.063854668221e+04 
       1.500704306163e-02       1.064020341076e+04 
       1.513298728086e-02       1.064103904377e+04 
       1.525897116339e-02       1.064113871129e+04 
       1.538499511884e-02       1.064046213188e+04 
       1.551105957723e-02       1.063907672086e+04 
       1.563716498900e-02       1.063681139551e+04 
       1.576331182504e-02       1.063386256418e+04 
       1.588950057673e-02       1.063021985343e+04 
       1.601573175602e-02       1.062582702642e+04 
       1.614200589557e-02       1.062072758428e+04 
       1.626832354877e-02       1.061492510742e+04 
       1.639468528996e-02       1.060842695885e+04 
       1.652109171452e-02       1.060127328160e+04 
       1.664754343905e-02       1.059343868749e+04 
       1.677404110157e-02       1.058488888147e+04 
       1.690058536167e-02       1.057577133671e+04 
       1.702717690078e-02       1.056593355480e+04 
       1.715381642236e-02       1.055547781543e+04 
       1.728050465219e-02       1.054443667718e+04 
       1.740724233858e-02       1.053280844677e+04 
       1.753403025270e-02       1.052048853561e+04 
       1.766086918885e-02       1.050769192432e+04 
       1.778775996477e-02       1.049425317200e+04 
       1.791470342202e-02       1.048022614209e+04 
       1.804170042624e-02       1.046555661574e+04 
       1.816875186761e-02       1.045050306693e+04 
       1.829585866114e-02       1.043477502091e+04 
       1.842302174715e-02       1.041853763342e+04 
       1.855024209161e-02       1.040185034806e+04 
       1.867752068664e-02       1.038456344552e+04 
       1.880485855089e-02       1.036679649177e+04 
       1.893225673008e-02       1.034850404300e+04 
       1.905971629742e-02       1.032973434682e+04 
       1.918723835416e-02       1.031047651557e+04 
       1.931482403007e-02       1.029065134129e+04 
       1.944247448403e-02       1.027048463187e+04 
       1.957019090454e-02       1.024978517257e+04 
       1.969797451032e-02       1.022875464739e+04 
       1.982582655094e-02       1.020716001104e+04 
       1.995374830739e-02       1.018512483051e+04 
       2.008174109273e-02       1.016241728489e+04 
       2.020980625278e-02       1.013988465042e+04 
       2.033794516680e-02       1.011672451087e+04 
       2.046615924815e-02       1.009299311166e+04 
       2.059444994508e-02       1.006904430062e+04 
       2.072281874145e-02       1.004428380874e+04 
       2.085126715750e-02       1.001974188427e+04 
       2.097979675068e-02       9.994637022397e+03 
       2.110840911646e-02       9.968777621462e+03 
       2.123710588917e-02       9.942932415597e+03 
       2.136588874291e-02       9.916994953668e+03 
       2.149475939244e-02       9.890087292900e+03 
       2.162371959413e-02       9.863194255736e+03 
       2.175277114689e-02       9.835986218110e+03 
       2.188191589323e-02       9.808740706708e+03 
       2.201115572023e-02       9.780554467831e+03 
       2.214049256062e-02       9.752437693535e+03 
       2.226992839388e-02       9.723915430727e+03 
       2.239946524738e-02       9.695353752437e+03 
       2.252910519749e-02       9.666369838730e+03 
       2.265885037084e-02       9.637005453800e+03 
       2.278870294555e-02       9.607432881858e+03 
       2.291866515245e-02       9.577585640242e+03 
       2.304873927648e-02       9.547458358776e+03 
       2.317892765799e-02       9.517104194598e+03 
       2.330923269415e-02       9.486590695428e+03 
       2.343965684044e-02       9.455854493005e+03 
       2.357020261208e-02       9.424693515018e+03 
       2.370087258564e-02       9.393341419683e+03 
       2.383166940058e-02       9.361942592447e+03 
       2.396259576090e-02       9.330234765422e+03 
       2.409365443689e-02       9.298358790734e+03 
       2.422484826681e-02       9.266224252043e+03 
       2.435618015876e-02       9.234038912382e+03 
       2.448765309251e-02       9.201468441504e+03 
       2.461927012146e-02       9.168849871530e+03 
       2.475103437463e-02       9.135861660826e+03 
       2.488294905873e-02       9.102862190768e+03 
       2.501501746029e-02       9.069726000187e+03 
       2.514724294787e-02       9.036447166246e+03 
       2.527962897432e-02       9.003057138893e+03 
       2.541217907921e-02       8.969348196959e+03 
       2.554489689119e-02       8.935617428441e+03 
       2.567778613058e-02       8.901614123856e+03 
       2.581085061195e-02       8.867558319163e+03 
       2.594409424685e-02       8.833361636984e+03 
       2.607752104663e-02       8.799133981568e+03 
       2.621113512528e-02       8.764688593937e+03 
       2.634494070254e-02       8.730290055288e+03 
       2.647894210694e-02       8.695585237506e+03 
       2.661314377905e-02       8.660875119596e+03 
       2.674755027486e-02       8.626048378941e+03 
       2.688216626922e-02       8.591209797374e+03 
       2.701699655947e-02       8.556132523008e+03 
       2.715204606917e-02       8.521049196961e+03 
       2.728731985198e-02       8.485878324480e+03 
       2.742282309567e-02       8.450635802588e+03 
       2.755856112635e-02       8.415350906608e+03 
       2.769453941277e-02       8.380060319201e+03 
       2.783076357084e-02       8.344558627477e+03 
       2.796723936833e-02       8.309088278620e+03 
       2.810397272974e-02       8.273540999100e+03 
       2.824096974137e-02       8.238014158661e+03 
       2.837823665659e-02       8.202360298456e+03 
       2.851577990133e-02       8.166543872670e+03 
       2.865360607975e-02       8.130830143325e+03 
       2.879172198026e-02       8.095076526524e+03 
       2.893013458162e-02       8.059323107667e+03 
       2.906885105945e-02       8.023638997907e+03 
       2.920787879294e-02       7.987808403162e+03 
       2.934722537181e-02       7.951828467127e+03 
       2.948689860366e-02       7.915955203054e+03 
       2.962690652156e-02       7.880105403239e+03 
       2.976725739205e-02       7.844235556211e+03 
       2.990795972335e-02       7.808300795116e+03 
       3.004902227412e-02       7.772523607920e+03 
       3.019045406246e-02       7.736535514802e+03 
       3.033226437541e-02       7.700600119885e+03 
       3.047446277880e-02       7.664713587464e+03 
       3.061705912765e-02       7.628913262974e+03 
       3.076006357698e-02       7.592955213688e+03 
       3.090348659314e-02       7.557068902078e+03 
       3.104733896568e-02       7.521264572254e+03 
       3.119163181983e-02       7.485435059184e+03 
       3.133637662949e-02       7.449572789386e+03 
       3.148158523094e-02       7.413855074588e+03 
       3.162726983716e-02       7.378044534031e+03 
       3.177344305290e-02       7.342336319533e+03 
       3.192011789051e-02       7.306621435476e+03 
       3.206730778651e-02       7.271047404484e+03 
       3.221502661907e-02       7.235348802779e+03 
       3.236328872640e-02       7.199662805268e+03 
       3.251210892602e-02       7.164199606854e+03 
       3.266150253512e-02       7.128713765086e+03 
       3.281148539202e-02       7.093136294424e+03 
       3.296207387866e-02       7.057687852387e+03 
       3.311328494447e-02       7.022329083827e+03 
       3.326513613148e-02       6.986948374257e+03 
       3.341764560078e-02       6.951650389963e+03 
       3.357083216056e-02       6.916500962343e+03 
       3.372471529568e-02       6.881217533453e+03 
       3.387931519897e-02       6.846118481300e+03 
       3.403465280434e-02       6.811049577972e+03 
       3.419074982181e-02       6.775940828234e+03 
       3.434762877467e-02       6.740974197423e+03 
       3.450531303887e-02       6.706009656027e+03 
       3.466382688477e-02       6.671123897036e+03 
       3.482319552150e-02       6.636329758289e+03 
       3.498344514405e-02       6.601569628921e+03 
       3.514460298340e-02       6.566880254536e+03 
       3.530669735978e-02       6.532234400123e+03 
       3.546975773944e-02       6.497671582039e+03 
       3.563381479508e-02       6.463157137974e+03 
       3.579890047034e-02       6.428660291895e+03 
       3.596504804860e-02       6.394285843363e+03 
       3.613229222652e-02       6.359974281552e+03 
       3.630066919256e-02       6.325686338463e+03 
       3.647021671111e-02       6.291474540093e+03 
       3.664097421249e-02       6.257343762107e+03 
       3.681298288948e-02       6.223245764016e+03 
       3.698628580087e-02       6.189219546768e+03 
       3.716092798269e-02       6.155257650724e+03 
       3.733695656775e-02       6.121381460194e+03 
       3.751442091430e-02       6.087518796469e+03 
       3.769337274462e-02       6.053848886688e+03 
       3.787386629450e-02       6.020071248832e+03 
       3.805595847457e-02       5.986378943812e+03 
       3.823970904470e-02       5.952871097760e+03 
       3.842518080270e-02       5.919262136083e+03 
       3.861243978878e-02       5.885757329867e+03 
       3.880155550726e-02       5.852353019104e+03 
       3.899260116745e-02       5.818963262968e+03 
       3.918565394553e-02       5.785720777355e+03 
       3.938079526979e-02       5.752463691560e+03 
       3.957811113165e-02       5.719242428706e+03 
       3.977769242533e-02       5.686007510681e+03 
       3.997963531929e-02       5.652942070943e+03 
       4.018404166314e-02       5.619768725418e+03 
       4.039101943406e-02       5.586843204785e+03 
       4.060068322725e-02       5.553776263120e+03 
       4.081315479592e-02       5.520808887561e+03 
       4.102856364660e-02       5.487899448474e+03 
       4.124704769675e-02       5.454981988119e+03 
       4.146875400260e-02       5.422123727853e+03 
       4.169383956608e-02       5.389306178689e+03 
       4.192247223147e-02       5.356542917800e+03 
       4.215483168364e-02       5.323709955125e+03 
       4.239111056185e-02       5.290923856180e+03 
       4.263151570522e-02       5.258162593434e+03 
       4.287626954883e-02       5.225422894236e+03 
       4.312561169211e-02       5.192671164389e+03 
       4.337980066555e-02       5.159917104092e+03 
       4.363911592576e-02       5.127195401124e+03 
       4.390386011452e-02       5.094385008014e+03 
       4.417436162402e-02       5.061603324716e+03 
       4.445097751817e-02       5.028806314238e+03 
       4.473409686975e-02       4.995981751201e+03 
       4.502414458438e-02       4.963108320580e+03 
       4.532158579707e-02       4.930183774272e+03 
       4.562693094415e-02       4.897212383513e+03 
       4.594074163551e-02       4.864278283294e+03 
       4.626363747843e-02       4.831107081126e+03 
       4.659630403800e-02       4.797937120252e+03 
       4.693950216059e-02       4.764660374993e+03 
       4.729407893930e-02       4.731258369064e+03 
       4.766098066597e-02       4.697756504290e+03 
       4.804126819778e-02       4.664145278297e+03 
       4.843613527196e-02       4.630399418807e+03 
       4.884693043636e-02       4.596397411189e+03 
       4.927518343482e-02       4.562332699267e+03 
       4.972263710430e-02       4.527932247425e+03 
       5.019128611839e-02       4.493228149034e+03 
       5.068342426408e-02       4.458365433189e+03 
       5.120170238132e-02       4.423093661582e+03 
       5.174919964330e-02       4.387522310874e+03 
       5.232951151611e-02       4.351435891157e+03 
       5.294685849360e-02       4.314793443184e+03 
       5.360622048858e-02       4.277474305750e+03 
       5.431350239286e-02       4.239529048772e+03 
       5.507573638079e-02       4.200470240185e+03 
       5.590132515475e-02       4.160193387156e+03 
       5.680032578856e-02       4.118385276741e+03 
       5.778476286384e-02       4.074495384495e+03 
       5.886893649473e-02       4.028008583996e+03 
