# dimensionless total lensed [l(l+1)/2pi] C_l's
# for l=2 to 2500, i.e. number of multipoles equal to 2499
#
# -> if you prefer output in CAMB/HealPix/LensPix units/order, set 'format' to 'camb' in input file
# -> if you don't want to see such a header, set 'headers' to 'no' in input file
# -> for CMB lensing (phi), these are C_l^phi-phi for the lensing potential.
#    Remember the conversion factors:
#    C_l^dd (deflection) = l(l+1) C_l^phi-phi
#    C_l^gg (shear/convergence) = 1/4 (l(l+1))^2 C_l^phi-phi
#
# 1:l     2:TT                     3:EE                     4:TE                     5:BB                     6:phiphi                 7:TPhi                   8:Ephi               
    2       2.854585114417e-10       7.806895511801e-15       5.603665501946e-13       4.801788098528e-15       8.271358720825e-09       4.685038887288e-10      -2.069921009977e-12 
    3       2.442152399262e-10       1.011721919445e-14       4.540119596951e-13       4.836912173871e-15       5.148726335959e-09       3.328019762627e-10      -1.657301403445e-12 
    4       2.251775880487e-10       9.682017114553e-15       3.881849558454e-13       4.207438490335e-15       3.586429359992e-09       2.520560123864e-10      -1.177720139427e-12 
    5       2.145248253569e-10       7.469500933489e-15       3.248965125278e-13       3.296709176235e-15       2.677555805025e-09       1.991510657348e-10      -7.494959608800e-13 
    6       2.075460012329e-10       4.913162259972e-15       2.623286054082e-13       2.393086641195e-15       2.090177623021e-09       1.620964284281e-10      -4.080107933933e-13 
    7       2.029896690380e-10       2.947895411600e-15       2.058536461376e-13       1.655482464375e-15       1.684622128169e-09       1.348639241416e-10      -1.621306517028e-13 
    8       2.000069908115e-10       1.817790449812e-15       1.590668442087e-13       1.137046229420e-15       1.391685830117e-09       1.141712231277e-10      -5.647479954703e-15 
    9       1.981636506311e-10       1.330999983706e-15       1.236125759812e-13       8.259317374441e-16       1.172301059130e-09       9.808817995705e-11       7.614713873592e-14 
   10       1.971361816597e-10       1.186225444147e-15       9.941859052555e-14       6.802254878712e-16       1.002705168924e-09       8.531909540113e-11       1.021464897228e-13 
   11       1.966183064928e-10       1.169540453825e-15       8.518268719947e-14       6.517617451922e-16       8.436783950638e-10       7.518697992074e-11       9.186508560670e-14 
   12       1.965348879215e-10       1.194027852027e-15       7.874044012140e-14       6.985435425778e-16       7.371096912681e-10       6.657322393836e-11       6.311946923823e-14 
   13       1.967459878958e-10       1.250060503406e-15       7.762429402377e-14       7.898392273095e-16       6.496398770163e-10       5.932628058264e-11       2.907092263035e-14 
   14       1.971760799578e-10       1.346963379475e-15       7.954519659291e-14       9.054576430747e-16       5.768651584177e-10       5.324454670616e-11      -9.930570074231e-16 
   15       1.977958550512e-10       1.483676776378e-15       8.262938386140e-14       1.034200817484e-15       5.156181570236e-10       4.810540162009e-11      -2.218715477009e-14 
   16       1.985235982862e-10       1.649637954003e-15       8.570214585396e-14       1.170566146245e-15       4.635505037554e-10       4.368030270381e-11      -3.331314481106e-14 
   17       1.994115507311e-10       1.835931352709e-15       8.811877195157e-14       1.311780494341e-15       4.188876604181e-10       3.973739105448e-11      -3.583213646839e-14 
   18       2.003627873890e-10       2.040241036946e-15       8.961341255122e-14       1.457504808828e-15       3.801236312964e-10       3.630850424297e-11      -3.220324980649e-14 
   19       2.013945053281e-10       2.266487027831e-15       9.034946417867e-14       1.607522899718e-15       3.466454273851e-10       3.334810774713e-11      -2.499139880377e-14 
   20       2.024779968824e-10       2.519948611536e-15       9.065385804693e-14       1.761596068127e-15       3.171614781057e-10       3.068648540851e-11      -1.731556188292e-14 
   21       2.036241474405e-10       2.802368742183e-15       9.077292315543e-14       1.919623792280e-15       2.912083428237e-10       2.831429760537e-11      -1.085821029422e-14 
   22       2.048015395325e-10       3.113624841024e-15       9.090466935223e-14       2.081621147971e-15       2.681649335736e-10       2.623354523476e-11      -6.765000430206e-15 
   23       2.060289157668e-10       3.452507409755e-15       9.103605059404e-14       2.247489892393e-15       2.477139361158e-10       2.440622792960e-11      -5.097053785234e-15 
   24       2.072996992954e-10       3.817213731111e-15       9.103610915314e-14       2.417122969293e-15       2.293819586293e-10       2.275570471229e-11      -5.394368278696e-15 
   25       2.086104670585e-10       4.207779138618e-15       9.069968458178e-14       2.590328009600e-15       2.129533009697e-10       2.124312288546e-11      -7.063496788200e-15 
   26       2.099330678683e-10       4.624684115395e-15       8.975875378135e-14       2.766892418792e-15       1.981307568337e-10       1.983374911893e-11      -9.332285101220e-15 
   27       2.112781057245e-10       5.068299874922e-15       8.796701990270e-14       2.946560259570e-15       1.847368220648e-10       1.854511019323e-11      -1.148214280157e-14 
   28       2.126492191458e-10       5.538979554384e-15       8.508131905595e-14       3.129073799657e-15       1.725408561268e-10       1.739863309300e-11      -1.283789351530e-14 
   29       2.140597895675e-10       6.037560340970e-15       8.098165216634e-14       3.314213354996e-15       1.614803139096e-10       1.638211972915e-11      -1.332193488021e-14 
   30       2.155019279796e-10       6.565052167050e-15       7.558447811503e-14       3.501784652039e-15       1.514358823454e-10       1.545802653119e-11      -1.308514842785e-14 
   31       2.169485498497e-10       7.122512872845e-15       6.882914992246e-14       3.691598508428e-15       1.422021220694e-10       1.458155339795e-11      -1.233485354275e-14 
   32       2.184108920066e-10       7.711061148372e-15       6.075669491646e-14       3.883415968092e-15       1.337314322269e-10       1.375465450264e-11      -1.126102826618e-14 
   33       2.198977286958e-10       8.331873192789e-15       5.146430555689e-14       4.076982981229e-15       1.259642349366e-10       1.299092150753e-11      -1.009101916448e-14 
   34       2.214039657805e-10       8.986066697944e-15       4.105407873839e-14       4.272049636866e-15       1.187921480652e-10       1.229855112930e-11      -9.066488057165e-15 
   35       2.229311254981e-10       9.674299716410e-15       2.951609699730e-14       4.468388297481e-15       1.121784367170e-10       1.167109812582e-11      -8.281424935301e-15 
   36       2.244706906400e-10       1.039702181029e-14       1.680484297446e-14       4.665782189015e-15       1.060698861026e-10       1.109246075342e-11      -7.789206035915e-15 
   37       2.260070328759e-10       1.115462663428e-14       2.872269393289e-15       4.864010692079e-15       1.003868317089e-10       1.054443280692e-11      -7.621413970869e-15 
   38       2.275521776092e-10       1.194764226154e-14      -1.232231443573e-14       5.062814039988e-15       9.511456698992e-11       1.002655356621e-11      -7.706483907462e-15 
   39       2.291204219065e-10       1.277659456338e-14      -2.881960692639e-14       5.261916589257e-15       9.023638085812e-11       9.542231557399e-12      -7.921731196482e-15 
   40       2.307178260052e-10       1.364195143857e-14      -4.666341261852e-14       5.461035605871e-15       8.570575813244e-11       9.093208375016e-12      -8.112395447775e-15 
   41       2.323437972449e-10       1.454415953765e-14      -6.589969692969e-14       5.659888321621e-15       8.146258469976e-11       8.679348229668e-12      -8.132619178526e-15 
   42       2.339987233211e-10       1.548377784032e-14      -8.657253053117e-14       5.858217111756e-15       7.749435745024e-11       8.298342062883e-12      -7.989537484274e-15 
   43       2.356772406031e-10       1.646138124207e-14      -1.087274197328e-13       6.055771641123e-15       7.379052427602e-11       7.945614533735e-12      -7.742516607835e-15 
   44       2.373651708456e-10       1.747752287384e-14      -1.324127506925e-13       6.252301999315e-15       7.032411559461e-11       7.614179197823e-12      -7.464920475357e-15 
   45       2.390466396535e-10       1.853266643829e-14      -1.576684306121e-13       6.447554440842e-15       6.706137523616e-11       7.296699010130e-12      -7.229005615641e-15 
   46       2.407297779413e-10       1.962696145035e-14      -1.844871475936e-13       6.641257083254e-15       6.399716619903e-11       6.992817863193e-12      -7.053241208398e-15 
   47       2.424273988850e-10       2.076039910301e-14      -2.128419724043e-13       6.833129935994e-15       6.112792679631e-11       6.703720999122e-12      -6.940668822148e-15 
   48       2.441494740849e-10       2.193286838578e-14      -2.426965745523e-13       7.022888553087e-15       5.844099246936e-11       6.430042247985e-12      -6.893404112588e-15 
   49       2.459028203567e-10       2.314415124633e-14      -2.740048137718e-13       7.210243789299e-15       5.591391884220e-11       6.171816548949e-12      -6.912558607897e-15 
   50       2.476911319860e-10       2.439397625632e-14      -3.067222229414e-13       7.394914575606e-15       5.352124145480e-11       5.928621822145e-12      -6.996340055924e-15 
   51       2.495158144576e-10       2.568220800675e-14      -3.408450791241e-13       7.576670899511e-15       5.125848859117e-11       5.700160134162e-12      -7.133927034935e-15 
   52       2.513748356319e-10       2.700870075850e-14      -3.763812317779e-13       7.755302069744e-15       4.912351632008e-11       5.485752213253e-12      -7.309796476307e-15 
   53       2.532621101552e-10       2.837324239564e-14      -4.133392857408e-13       7.930605076680e-15       4.710932226827e-11       5.284124232917e-12      -7.505239743909e-15 
   54       2.551672025075e-10       2.977555234024e-14      -4.517287523135e-13       8.102384961165e-15       4.520371863618e-11       5.093369243671e-12      -7.698198704674e-15 
   55       2.570795634012e-10       3.121530620145e-14      -4.915591903612e-13       8.270457132354e-15       4.339304945349e-11       4.911471806459e-12      -7.868672444945e-15 
   56       2.590031516700e-10       3.269222167046e-14      -5.328370336401e-13       8.434654150548e-15       4.167517281991e-11       4.738122869804e-12      -8.016885829867e-15 
   57       2.609449246371e-10       3.420599031127e-14      -5.755682399435e-13       8.594821275389e-15       4.004913099312e-11       4.573288191816e-12      -8.149347268924e-15 
   58       2.629105053051e-10       3.575625167510e-14      -6.197593413306e-13       8.750815099562e-15       3.851122298084e-11       4.416668376225e-12      -8.273725464857e-15 
   59       2.649040620281e-10       3.734259225674e-14      -6.654175558587e-13       8.902503993556e-15       3.705483512437e-11       4.267682247066e-12      -8.398902522387e-15 
   60       2.669281881849e-10       3.896454445097e-14      -7.125508993160e-13       9.049768550431e-15       3.567027168213e-11       4.125450223374e-12      -8.535027056928e-15 
   61       2.689845416862e-10       4.062157550811e-14      -7.611637268273e-13       9.192499560280e-15       3.434744687767e-11       3.989056411119e-12      -8.690512544044e-15 
   62       2.710762034555e-10       4.231305386481e-14      -8.112419354820e-13       9.330590396163e-15       3.308505042444e-11       3.858441235787e-12      -8.862124902019e-15 
   63       2.732056372208e-10       4.403827336953e-14      -8.627646234333e-13       9.463943700578e-15       3.188314803167e-11       3.733680580694e-12      -9.042754077466e-15 
   64       2.753738820802e-10       4.579646128260e-14      -9.157083343211e-13       9.592474064068e-15       3.074042441305e-11       3.614717122290e-12      -9.224229522294e-15 
   65       2.775804562835e-10       4.758677691523e-14      -9.700470239980e-13       9.716108391604e-15       2.965410466237e-11       3.501352548338e-12      -9.397276377230e-15 
   66       2.798232610137e-10       4.940831026861e-14      -1.025752027256e-12       9.834786268971e-15       2.861987562924e-11       3.393239776087e-12      -9.551471655332e-15 
   67       2.820984841684e-10       5.126008067302e-14      -1.082792024552e-12       9.948460329142e-15       2.763180729466e-11       3.289875170456e-12      -9.675200425512e-15 
   68       2.844023389989e-10       5.314104459383e-14      -1.141135771917e-12       1.005708784328e-14       2.668393611407e-11       3.190739360427e-12      -9.758428910537e-15 
   69       2.867369041949e-10       5.505012392837e-14      -1.200761007398e-12       1.016060269615e-14       2.577556334600e-11       3.095770216146e-12      -9.801774217396e-15 
   70       2.891052997404e-10       5.698618102430e-14      -1.261647297809e-12       1.025893836429e-14       2.490689399280e-11       3.004972170174e-12      -9.809202103074e-15 
   71       2.915099083520e-10       5.894800891371e-14      -1.323773471958e-12       1.035203632834e-14       2.407743435210e-11       2.918272188963e-12      -9.785400386092e-15 
   72       2.939523261872e-10       6.093433018658e-14      -1.387117658036e-12       1.043984621502e-14       2.328595589802e-11       2.835515791502e-12      -9.735807173879e-15 
   73       2.964333135534e-10       6.294379586438e-14      -1.451657321014e-12       1.052232593908e-14       2.253045916237e-11       2.756463067960e-12      -9.666639090136e-15 
   74       2.989527456167e-10       6.497498427355e-14      -1.517369300043e-12       1.059944184520e-14       2.180813761592e-11       2.680784698329e-12      -9.584919502205e-15 
   75       3.015095631107e-10       6.702639991908e-14      -1.584229845842e-12       1.067116884999e-14       2.111534154956e-11       2.608057971073e-12      -9.498506748436e-15 
   76       3.041026229891e-10       6.909651975451e-14      -1.652213592282e-12       1.073749031622e-14       2.044848384492e-11       2.537871248448e-12      -9.414424404556e-15 
   77       3.067335384275e-10       7.118394422333e-14      -1.721290171929e-12       1.079839733538e-14       1.980702781609e-11       2.470168156082e-12      -9.333438162570e-15 
   78       3.094042695638e-10       7.328727184212e-14      -1.791427048399e-12       1.085388957153e-14       1.919098112604e-11       2.404959216308e-12      -9.254536708413e-15 
   79       3.121162391597e-10       7.540505409542e-14      -1.862590542716e-12       1.090397565172e-14       1.859998570018e-11       2.342217240453e-12      -9.176535466786e-15 
   80       3.148703017636e-10       7.753579528115e-14      -1.934745848852e-12       1.094867330238e-14       1.803330092170e-11       2.281875571263e-12      -9.098070010460e-15 
   81       3.176667128737e-10       7.967795235606e-14      -2.007857049266e-12       1.098800948583e-14       1.748978682709e-11       2.223826325337e-12      -9.017589469572e-15 
   82       3.205050981005e-10       8.182993478113e-14      -2.081887130448e-12       1.102202053668e-14       1.696788730150e-11       2.167918635559e-12      -8.933349940933e-15 
   83       3.233844223299e-10       8.399010436704e-14      -2.156797998455e-12       1.105075229836e-14       1.646561327417e-11       2.113956893527e-12      -8.843407897326e-15 
   84       3.263036218021e-10       8.615678190928e-14      -2.232549693025e-12       1.107425536109e-14       1.598102611121e-11       2.061750554252e-12      -8.746180079539e-15 
   85       3.292636882927e-10       8.832826869591e-14      -2.309097846195e-12       1.109256957009e-14       1.551381667860e-11       2.011276886767e-12      -8.642244255322e-15 
   86       3.322658755124e-10       9.050282829855e-14      -2.386395828905e-12       1.110573718745e-14       1.506395846115e-11       1.962542107152e-12      -8.532826292402e-15 
   87       3.353110475064e-10       9.267868005978e-14      -2.464395517013e-12       1.111380761552e-14       1.463122236586e-11       1.915531337309e-12      -8.419263105111e-15 
   88       3.383996589580e-10       9.485399905277e-14      -2.543047293361e-12       1.111683745101e-14       1.421516832401e-11       1.870207713986e-12      -8.303005584400e-15 
   89       3.415317354932e-10       9.702691604072e-14      -2.622300049850e-12       1.111489053920e-14       1.381513689329e-11       1.826511497803e-12      -8.185621527864e-15 
   90       3.447068539849e-10       9.919551743651e-14      -2.702101189505e-12       1.110803802800e-14       1.343024085988e-11       1.784359182273e-12      -8.068798569761e-15 
   91       3.479241228574e-10       1.013578452622e-13      -2.782396628553e-12       1.109635842211e-14       1.305935684057e-11       1.743642602830e-12      -7.954347111027e-15 
   92       3.511821623906e-10       1.035118971085e-13      -2.863130798487e-12       1.107993763718e-14       1.270111688486e-11       1.704228045848e-12      -7.844203249306e-15 
   93       3.544796520410e-10       1.056556720888e-13      -2.944247773414e-12       1.105886513733e-14       1.235423298510e-11       1.665988927729e-12      -7.740038195429e-15 
   94       3.578171093475e-10       1.077873166945e-13      -3.025694841529e-12       1.103322156588e-14       1.201854467740e-11       1.628911389584e-12      -7.642012961611e-15 
   95       3.611953434028e-10       1.099050009037e-13      -3.107419477118e-12       1.100308934576e-14       1.169411420620e-11       1.593003010572e-12      -7.549840924089e-15 
   96       3.646148999230e-10       1.120068747242e-13      -3.189368280431e-12       1.096855643061e-14       1.138090387830e-11       1.558260228505e-12      -7.463162209754e-15 
   97       3.680760493350e-10       1.140910687844e-13      -3.271486995196e-12       1.092971630521e-14       1.107877223467e-11       1.524667909687e-12      -7.381541224474e-15 
   98       3.715787748647e-10       1.161556949245e-13      -3.353720526139e-12       1.088666798578e-14       1.078747022238e-11       1.492198918746e-12      -7.304464181413e-15 
   99       3.751227606238e-10       1.181988467872e-13      -3.436012956503e-12       1.083951602044e-14       1.050663736645e-11       1.460813688470e-12      -7.231336629363e-15 
  100       3.787073796984e-10       1.202186004084e-13      -3.518307565559e-12       1.078837048948e-14       1.023579794171e-11       1.430459789641e-12      -7.161480981063e-15 
  101       3.823316822360e-10       1.222130148086e-13      -3.600546846130e-12       1.073334700581e-14       9.974357144731e-12       1.401071500871e-12      -7.094134041525e-15 
  102       3.859943835335e-10       1.241801325834e-13      -3.682672522105e-12       1.067456671531e-14       9.721597265649e-12       1.372569378436e-12      -7.028444536359e-15 
  103       3.896938521247e-10       1.261179804945e-13      -3.764625565955e-12       1.061215629716e-14       9.476673860071e-12       1.344859826111e-12      -6.963470640095e-15 
  104       3.934285433085e-10       1.280246112552e-13      -3.846346109089e-12       1.054624324384e-14       9.238807154341e-12       1.317856802250e-12      -6.898371549390e-15 
  105       3.971983920885e-10       1.298982340435e-13      -3.927773121376e-12       1.047694097396e-14       9.007893953519e-12       1.291551207095e-12      -6.833016999052e-15 
  106       4.010035870668e-10       1.317371028027e-13      -4.008844720786e-12       1.040436169972e-14       8.783971641341e-12       1.265950110364e-12      -6.767455858134e-15 
  107       4.048441348745e-10       1.335394776529e-13      -4.089498292831e-12       1.032862091683e-14       8.567028665829e-12       1.241055266378e-12      -6.701729102393e-15 
