# dimensionless [l(l+1)/2pi] C_l's for scalar mode
# for l=2 to 3000, i.e. number of multipoles equal to 2999
#
# -> if you prefer output in CAMB/HealPix/LensPix units/order, set 'format' to 'camb' in input file
# -> if you don't want to see such a header, set 'headers' to 'no' in input file
# -> for CMB lensing (phi), these are C_l^phi-phi for the lensing potential.
#    Remember the conversion factors:
#    C_l^dd (deflection) = l(l+1) C_l^phi-phi
#    C_l^gg (shear/convergence) = 1/4 (l(l+1))^2 C_l^phi-phi
#
# 1:l     2:TT                     3:EE                     4:TE                     5:BB                     6:phiphi                 7:TPhi                   8:Ephi               
    2       1.434897817790e-10       5.120179814235e-15       3.941692780660e-13       0.000000000000e+00       8.287618704626e-09       4.688832980132e-10      -2.069962623733e-12 
    3       1.352894704755e-10       7.272962969333e-15       4.620912396745e-13       0.000000000000e+00       5.159905292203e-09       3.331023870641e-10      -1.657326636187e-12 
    4       1.274900159378e-10       7.071366640795e-15       4.487734192610e-13       0.000000000000e+00       3.594449872414e-09       2.522998551989e-10      -1.177729768808e-12 
    5       1.215457262979e-10       5.382209717470e-15       3.963858644698e-13       0.000000000000e+00       2.683674281468e-09       1.993546395975e-10      -7.494955232118e-13 
    6       1.173470529185e-10       3.407934698356e-15       3.302964345609e-13       0.000000000000e+00       2.095246070474e-09       1.622710335734e-10      -4.080047088869e-13 
    7       1.145493340198e-10       1.921982393959e-15       2.661616592117e-13       0.000000000000e+00       1.689054585435e-09       1.350163386431e-10      -1.621220415147e-13 
    8       1.127551238391e-10       1.102595064532e-15       2.121133863704e-13       0.000000000000e+00       1.395556196723e-09       1.143050526248e-10      -5.638409211427e-15 
    9       1.117753985731e-10       7.630669407400e-16       1.714817756865e-13       0.000000000000e+00       1.175623398134e-09       9.820590056530e-11       7.615543569967e-14 
   10       1.114282777522e-10       6.416356199591e-16       1.445258104991e-13       0.000000000000e+00       1.005601730646e-09       8.542337205422e-11       1.021534255299e-13 
   11       1.114903684532e-10       5.698199518170e-16       1.297186923288e-13       0.000000000000e+00       8.459513702166e-10       7.527725257562e-11       9.186938332298e-14 
   12       1.119346367967e-10       4.964589671454e-16       1.245070586579e-13       0.000000000000e+00       7.391090716271e-10       6.665423562725e-11       6.312291910133e-14 
   13       1.126497196076e-10       4.342776616761e-16       1.260356771009e-13       0.000000000000e+00       6.514118122843e-10       5.939951180781e-11       2.907373984833e-14 
   14       1.135778586490e-10       4.032046571739e-16       1.317084503203e-13       0.000000000000e+00       5.784456252123e-10       5.331112973887e-11      -9.906296574729e-16 
   15       1.147008626236e-10       4.061954768034e-16       1.394328726013e-13       0.000000000000e+00       5.170358132762e-10       4.816608706634e-11      -2.218503877952e-14 
   16       1.159436327099e-10       4.334426139047e-16       1.478768149613e-13       0.000000000000e+00       4.648283684580e-10       4.373569441111e-11      -3.331119285942e-14 
   17       1.173620170137e-10       4.752835438147e-16       1.562824365495e-13       0.000000000000e+00       4.200447606087e-10       3.978798728884e-11      -3.583037227788e-14 
   18       1.188668066168e-10       5.295585670099e-16       1.643081230440e-13       0.000000000000e+00       3.811751069028e-10       3.635474945049e-11      -3.220164936950e-14 
   19       1.204579077930e-10       6.003138533150e-16       1.720699696751e-13       0.000000000000e+00       3.476051491154e-10       3.339043625633e-11      -2.498993033477e-14 
   20       1.221258823376e-10       6.927732056886e-16       1.798323385591e-13       0.000000000000e+00       3.180399316860e-10       3.072524426206e-11      -1.731423678176e-14 
   21       1.238710677511e-10       8.088828224069e-16       1.878083789839e-13       0.000000000000e+00       2.920148826933e-10       2.834985053317e-11      -1.085704511984e-14 
   22       1.256674892455e-10       9.487733783447e-16       1.961622838893e-13       0.000000000000e+00       2.689073616522e-10       2.626625958066e-11      -6.764002474674e-15 
   23       1.275264422801e-10       1.111378385260e-15       2.048473843917e-13       0.000000000000e+00       2.483992436263e-10       2.443645035561e-11      -5.096213475506e-15 
   24       1.294474220579e-10       1.294967825111e-15       2.136936131315e-13       0.000000000000e+00       2.300158771659e-10       2.278372524937e-11      -5.393656000661e-15 
   25       1.314210849870e-10       1.499635782570e-15       2.224656229808e-13       0.000000000000e+00       2.135410236912e-10       2.126922231149e-11      -7.062869498932e-15 
   26       1.334225736774e-10       1.725866509295e-15       2.308652009457e-13       0.000000000000e+00       1.986767153101e-10       1.985818094553e-11      -9.331694241845e-15 
   27       1.354600443679e-10       1.973929590059e-15       2.386202961884e-13       0.000000000000e+00       1.852449686937e-10       1.856804465316e-11      -1.148156201379e-14 
   28       1.375411437923e-10       2.244066495617e-15       2.454620205870e-13       0.000000000000e+00       1.730145031827e-10       1.742013349617e-11      -1.283732754948e-14 
   29       1.396714035894e-10       2.537293522226e-15       2.512473209104e-13       0.000000000000e+00       1.619226112425e-10       1.640223835825e-11      -1.332139664610e-14 
   30       1.418420539376e-10       2.854920616066e-15       2.558690444220e-13       0.000000000000e+00       1.518496649213e-10       1.547682693044e-11      -1.308465227111e-14 
   31       1.440341694849e-10       3.198337394652e-15       2.592421349034e-13       0.000000000000e+00       1.425896705544e-10       1.459910541795e-11      -1.233441372637e-14 
   32       1.462537946577e-10       3.568955375161e-15       2.613864070438e-13       0.000000000000e+00       1.340949001221e-10       1.377104233984e-11      -1.126065206038e-14 
   33       1.485074243362e-10       3.968253773047e-15       2.623785304937e-13       0.000000000000e+00       1.263056107766e-10       1.300624227661e-11      -1.009070305909e-14 
   34       1.507937616580e-10       4.397658748475e-15       2.623002422009e-13       0.000000000000e+00       1.191131184626e-10       1.231290737138e-11      -9.066220872711e-15 
   35       1.531110005466e-10       4.858054042885e-15       2.611231009057e-13       0.000000000000e+00       1.124805855828e-10       1.168458336158e-11      -8.281210686799e-15 
   36       1.554502457203e-10       5.350090330529e-15       2.587839118322e-13       0.000000000000e+00       1.063546477798e-10       1.110514813653e-11      -7.789074359198e-15 
   37       1.577993319193e-10       5.874356320769e-15       2.552167454042e-13       0.000000000000e+00       1.006554171377e-10       1.055637180776e-11      -7.621414548438e-15 
   38       1.601660410448e-10       6.431553372816e-15       2.503604899823e-13       0.000000000000e+00       9.536814817891e-11       1.003779095585e-11      -7.706642532584e-15 
   39       1.625614532099e-10       7.022368733477e-15       2.441531037530e-13       0.000000000000e+00       9.047608629088e-11       9.552815293999e-12      -7.922031116960e-15 
   40       1.649931561718e-10       7.647423301649e-15       2.365291557502e-13       0.000000000000e+00       8.593258973871e-11       9.103184629707e-12      -8.112768251661e-15 
   41       1.674644937132e-10       8.307313471513e-15       2.274245770098e-13       0.000000000000e+00       8.167737887751e-11       8.688759099552e-12      -8.132951731103e-15 
   42       1.699731003389e-10       9.002763330143e-15       2.167935916698e-13       0.000000000000e+00       7.769791291999e-11       8.307226281482e-12      -7.989734657528e-15 
   43       1.725111307133e-10       9.734514803628e-15       2.045967251392e-13       0.000000000000e+00       7.398360520687e-11       7.954005692755e-12      -7.742525431496e-15 
   44       1.750650563097e-10       1.050328472365e-14       1.907961983563e-13       0.000000000000e+00       7.050740445812e-11       7.622102881228e-12      -7.464739809153e-15 
   45       1.776210977611e-10       1.130970914848e-14       1.753602025801e-13       0.000000000000e+00       6.723545416129e-11       7.304172558119e-12      -7.228684997546e-15 
   46       1.801845695808e-10       1.215415913927e-14       1.582772188085e-13       0.000000000000e+00       6.416260276643e-11       6.999859460447e-12      -7.052842007944e-15 
   47       1.827655167755e-10       1.303686798572e-14       1.395460001960e-13       0.000000000000e+00       6.128528028189e-11       6.710351867594e-12      -6.940252804069e-15 
   48       1.853731850704e-10       1.395797681268e-14       1.191719322741e-13       0.000000000000e+00       5.859078875396e-11       6.436286194794e-12      -6.893032349173e-15 
   49       1.880158894546e-10       1.491753030850e-14       9.716729071617e-14       0.000000000000e+00       5.605662345314e-11       6.177699466967e-12      -6.912290313523e-15 
   50       1.906996523948e-10       1.591553824497e-14       7.354256719709e-14       0.000000000000e+00       5.365725063335e-11       5.934171019474e-12      -6.996227560616e-15 
   51       1.934239876852e-10       1.695218963380e-14       4.827707322869e-14       0.000000000000e+00       5.138818454010e-11       5.705403205293e-12      -7.133998120078e-15 
   52       1.961847449430e-10       1.802768931663e-14       2.134080263104e-14       0.000000000000e+00       4.924727246299e-11       5.490716162355e-12      -7.310045783274e-15 
   53       1.989750550530e-10       1.914219610638e-14      -7.297492656868e-15       0.000000000000e+00       4.722748922768e-11       5.288834658175e-12      -7.505623416227e-15 
   54       2.017851408146e-10       2.029582161163e-14      -3.767046513664e-14       0.000000000000e+00       4.531660927976e-11       5.097849468485e-12      -7.698628774332e-15 
   55       2.046055990530e-10       2.148861771896e-14      -6.980887388955e-14       0.000000000000e+00       4.350093507726e-11       4.915742267125e-12      -7.869025614851e-15 
   56       2.074386355384e-10       2.272053809150e-14      -1.037303592070e-13       0.000000000000e+00       4.177831811723e-11       4.742201468989e-12      -8.017060218855e-15 
   57       2.102892893947e-10       2.399146504668e-14      -1.394481640732e-13       0.000000000000e+00       4.014779824085e-11       4.577189833093e-12      -8.149282660986e-15 
   58       2.131621532410e-10       2.530121847797e-14      -1.769743773972e-13       0.000000000000e+00       3.860566454909e-11       4.420404169819e-12      -8.273410258427e-15 
   59       2.160613190907e-10       2.664955423744e-14      -2.163199617515e-13       0.000000000000e+00       3.714528552456e-11       4.271258674532e-12      -8.398380994621e-15 
   60       2.189903242493e-10       2.803616251826e-14      -2.574947811096e-13       0.000000000000e+00       3.575693915342e-11       4.128868261200e-12      -8.534406942990e-15 
   61       2.219519819526e-10       2.946066479674e-14      -3.005043815352e-13       0.000000000000e+00       3.443051216444e-11       3.992312109233e-12      -8.689954303938e-15 
   62       2.249479512509e-10       3.092260751566e-14      -3.453394260893e-13       0.000000000000e+00       3.316469005785e-11       3.861531135333e-12      -8.861770534181e-15 
   63       2.279789741370e-10       3.242146410642e-14      -3.919839269036e-13       0.000000000000e+00       3.195953781314e-11       3.736603310824e-12      -9.042703313440e-15 
   64       2.310449256734e-10       3.395663467406e-14      -4.404182091712e-13       0.000000000000e+00       3.081373551571e-11       3.617473603085e-12      -9.224533180902e-15 
   65       2.341447562337e-10       3.552744433408e-14      -4.906188358575e-13       0.000000000000e+00       2.972449951371e-11       3.503946200123e-12      -9.397929442700e-15 
   66       2.372764337437e-10       3.713314154926e-14      -5.425585324125e-13       0.000000000000e+00       2.868750357476e-11       3.395676735141e-12      -9.552406079406e-15 
   67       2.404368859233e-10       3.877289646643e-14      -5.962061114819e-13       0.000000000000e+00       2.769680004284e-11       3.292164511107e-12      -9.676277653504e-15 
   68       2.436231379473e-10       4.044581373559e-14      -6.515297635468e-13       0.000000000000e+00       2.674640775417e-11       3.192892759163e-12      -9.759452033625e-15 
   69       2.468361222225e-10       4.215097770119e-14      -7.085078714027e-13       0.000000000000e+00       2.583562565013e-11       3.097799796175e-12      -9.802564238530e-15 
   70       2.500775403586e-10       4.388741342206e-14      -7.671202617955e-13       0.000000000000e+00       2.496465915183e-11       3.006889806634e-12      -9.809622644182e-15 
   71       2.533487093537e-10       4.565407172959e-14      -8.273450439813e-13       0.000000000000e+00       2.413301309913e-11       2.920089337995e-12      -9.785363871272e-15 
   72       2.566505344082e-10       4.744982793505e-14      -8.891586205234e-13       0.000000000000e+00       2.333945553549e-11       2.837243311276e-12      -9.735281245561e-15 
   73       2.599834817405e-10       4.927348053665e-14      -9.525356980889e-13       0.000000000000e+00       2.258198149293e-11       2.758111031660e-12      -9.665653258226e-15 
   74       2.633475514013e-10       5.112374992683e-14      -1.017449298245e-12       0.000000000000e+00       2.185777677690e-11       2.682362199101e-12      -9.583572026195e-15 
   75       2.667422500884e-10       5.299927709942e-14      -1.083870768256e-12       0.000000000000e+00       2.116318175121e-11       2.609572918921e-12      -9.496971752497e-15 
   76       2.701670198014e-10       5.489866855263e-14      -1.151769391406e-12       0.000000000000e+00       2.049459951808e-11       2.539330184391e-12      -9.412937886973e-15 
   77       2.736226741414e-10       5.682064330910e-14      -1.221111112062e-12       0.000000000000e+00       1.985149170842e-11       2.471576139469e-12      -9.332215729945e-15 
   78       2.771101757543e-10       5.876391048148e-14      -1.291859596653e-12       0.000000000000e+00       1.923386573099e-11       2.406319637764e-12      -9.253747500204e-15 
   79       2.806301861773e-10       6.072712511506e-14      -1.363976616068e-12       0.000000000000e+00       1.864136226438e-11       2.343531603309e-12      -9.176296112681e-15 
   80       2.841830480013e-10       6.270888784227e-14      -1.437422048232e-12       0.000000000000e+00       1.807323840760e-11       2.283143265469e-12      -9.098438383147e-15 
   81       2.877687670328e-10       6.470774453715e-14      -1.512153880697e-12       0.000000000000e+00       1.752835083053e-11       2.225044393844e-12      -9.018558232930e-15 
   82       2.913869944563e-10       6.672218596979e-14      -1.588128213224e-12       0.000000000000e+00       1.700513892439e-11       2.169081533180e-12      -8.934839893625e-15 
   83       2.950370089963e-10       6.875064746088e-14      -1.665299260368e-12       0.000000000000e+00       1.650160795230e-11       2.115056238275e-12      -8.845261111802e-15 
   84       2.987180672056e-10       7.079151824801e-14      -1.743619115977e-12       0.000000000000e+00       1.601581374877e-11       2.062775765562e-12      -8.748172098954e-15 
   85       3.024305601245e-10       7.284317212580e-14      -1.823036996163e-12       0.000000000000e+00       1.554744605053e-11       2.012218669771e-12      -8.644157542440e-15 
   86       3.061750165581e-10       7.490394127539e-14      -1.903499874989e-12       0.000000000000e+00       1.509647797611e-11       1.963393551119e-12      -8.534472252905e-15 
   87       3.099517405197e-10       7.697210682454e-14      -1.984952709994e-12       0.000000000000e+00       1.466267951850e-11       1.916288169019e-12      -8.420485868613e-15 
   88       3.137607995798e-10       7.904589866536e-14      -2.067338440787e-12       0.000000000000e+00       1.424560912500e-11       1.870868558616e-12      -8.303685904623e-15 
   89       3.176020132153e-10       8.112349527197e-14      -2.150597987620e-12       0.000000000000e+00       1.384460527720e-11       1.827078147321e-12      -8.185680801950e-15 
   90       3.214749411592e-10       8.320302351826e-14      -2.234670249976e-12       0.000000000000e+00       1.345877807074e-11       1.784836871336e-12      -8.068202976737e-15 
   91       3.253788717487e-10       8.528255849551e-14      -2.319492105154e-12       0.000000000000e+00       1.308700079534e-11       1.744040292195e-12      -7.953111869424e-15 
   92       3.293128102753e-10       8.736012333017e-14      -2.404998406846e-12       0.000000000000e+00       1.272790151456e-11       1.704558713292e-12      -7.842396993914e-15 
   93       3.332757930157e-10       8.943373698199e-14      -2.491123595903e-12       0.000000000000e+00       1.238018848056e-11       1.666268929754e-12      -7.737776359238e-15 
   94       3.372679086584e-10       9.150156625794e-14      -2.577806812812e-12       0.000000000000e+00       1.204370065213e-11       1.629156859340e-12      -7.639416022892e-15 
   95       3.412894096733e-10       9.356179643057e-14      -2.664987555091e-12       0.000000000000e+00       1.171850034185e-11       1.593228785614e-12      -7.547022699751e-15 
   96       3.453403932338e-10       9.561258576453e-14      -2.752604154061e-12       0.000000000000e+00       1.140454967305e-11       1.558479670283e-12      -7.460228758874e-15 
   97       3.494207940363e-10       9.765206599294e-14      -2.840593795558e-12       0.000000000000e+00       1.110170674224e-11       1.524892717672e-12      -7.378589718406e-15 
   98       3.535303771199e-10       9.967834279367e-14      -2.928892540651e-12       0.000000000000e+00       1.080972178142e-11       1.492438939220e-12      -7.301581740500e-15 
   99       3.576687306863e-10       1.016894962657e-13      -3.017435346347e-12       0.000000000000e+00       1.052823332055e-11       1.461076717953e-12      -7.228599126222e-15 
  100       3.618352589196e-10       1.036835814054e-13      -3.106156086312e-12       0.000000000000e+00       1.025676434988e-11       1.430751372981e-12      -7.158951810471e-15 
  101       3.660291748059e-10       1.056586285830e-13      -3.194987571580e-12       0.000000000000e+00       9.994718482341e-12       1.401394723973e-12      -7.091862856887e-15 
  102       3.702494929528e-10       1.076126440185e-13      -3.283861571266e-12       0.000000000000e+00       9.741376115950e-12       1.372924655647e-12      -7.026465952765e-15 
  103       3.744950224096e-10       1.095436102586e-13      -3.372708833283e-12       0.000000000000e+00       9.495890596176e-12       1.345244682254e-12      -6.961802903971e-15 
  104       3.787646190195e-10       1.114495314661e-13      -3.461459393523e-12       0.000000000000e+00       9.257480108148e-12       1.318266224237e-12      -6.897017930491e-15 
  105       3.830579967655e-10       1.133285752313e-13      -3.550043506369e-12       0.000000000000e+00       9.026041140769e-12       1.291979803428e-12      -6.831975840307e-15 
  106       3.873750131499e-10       1.151789508948e-13      -3.638390879084e-12       0.000000000000e+00       8.801611124034e-12       1.266392698133e-12      -6.766723080348e-15 
  107       3.917154151722e-10       1.169988674014e-13      -3.726430418159e-12       0.000000000000e+00       8.584178433000e-12       1.241506906089e-12      -6.701298054534e-15 
