# dimensionless total lensed [l(l+1)/2pi] C_l's
# for l=2 to 2500, i.e. number of multipoles equal to 2499
#
# -> if you prefer output in CAMB/HealPix/LensPix units/order, set 'format' to 'camb' in input file
# -> if you don't want to see such a header, set 'headers' to 'no' in input file
# -> for CMB lensing (phi), these are C_l^phi-phi for the lensing potential.
#    Remember the conversion factors:
#    C_l^dd (deflection) = l(l+1) C_l^phi-phi
#    C_l^gg (shear/convergence) = 1/4 (l(l+1))^2 C_l^phi-phi
#
# 1:l     2:TT                     3:EE                     4:TE                     5:BB                     6:phiphi                 7:TPhi                   8:Ephi               
    2       2.854709517800e-10       7.806740630156e-15       5.603658548120e-13       4.801619658808e-15       8.254137270216e-09       4.683066727963e-10      -2.069961535609e-12 
    3       2.442471998188e-10       1.011690169186e-14       4.540101723105e-13       4.836575293862e-15       5.114284814135e-09       3.322970513670e-10      -1.657322634115e-12 
    4       2.252391404003e-10       9.681452671380e-15       3.881815191713e-13       4.206877022454e-15       3.544693628664e-09       2.513738519996e-10      -1.177719086785e-12 
    5       2.146256426394e-10       7.468620476735e-15       3.248909017603e-13       3.295866972306e-15       2.634929423350e-09       1.983823782458e-10      -7.494756157579e-13 
    6       2.076954908599e-10       4.911937466101e-15       2.623202610132e-13       2.391907552456e-15       2.049654399298e-09       1.612889295198e-10      -4.079751928732e-13 
    7       2.031964599686e-10       2.946323271604e-15       2.058420237452e-13       1.653910341575e-15       1.646763783365e-09       1.340332313936e-10      -1.620854498633e-13 
    8       2.002800360974e-10       1.815854659521e-15       1.590517488596e-13       1.135024923042e-15       1.356019983371e-09       1.133187451399e-10      -5.599938693825e-15 
    9       1.985114356419e-10       1.328647149919e-15       1.235939224695e-13       8.234050980726e-16       1.138430128941e-09       9.721809436285e-11       7.618935217910e-14 
   10       1.975677501361e-10       1.183375123381e-15       9.939653664470e-14       6.771373667233e-16       9.706203981623e-10       8.443904473671e-11       1.021770214219e-13 
   11       1.971417404750e-10       1.166115769361e-15       8.515744014998e-14       6.480559948346e-16       8.283265609023e-10       7.463120025716e-11       9.187875670812e-14 
   12       1.971590395300e-10       1.189979294346e-15       7.871164413581e-14       6.941640178462e-16       7.228457001346e-10       6.601631639095e-11       6.311789499702e-14 
   13       1.974792960711e-10       1.245365663280e-15       7.759098812963e-14       7.847297864442e-16       6.363126587910e-10       5.877057272864e-11       2.905677701846e-14 
   14       1.980266903533e-10       1.341609340708e-15       7.950594242503e-14       8.995621490824e-16       5.643539843059e-10       5.269234747834e-11      -1.014597847578e-15 
   15       1.987721977297e-10       1.477646109923e-15       8.258122867553e-14       1.027463139729e-15       5.038250445406e-10       4.755811027944e-11      -2.220980729107e-14 
   16       1.996329625691e-10       1.642908875249e-15       8.564219353285e-14       1.162930162262e-15       4.523946537739e-10       4.313947234869e-11      -3.333079231316e-14 
   17       2.006631686322e-10       1.828489899731e-15       8.804319235103e-14       1.303190091866e-15       4.083017392993e-10       3.920398883428e-11      -3.584044742951e-14 
   18       2.017642879311e-10       2.032097155426e-15       8.951767095022e-14       1.447903888017e-15       3.700571869511e-10       3.578237894652e-11      -3.220006037866e-14 
   19       2.029530790459e-10       2.257675182858e-15       9.022848571178e-14       1.596855375518e-15       3.370373368220e-10       3.282798205534e-11      -2.497695102722e-14 
   20       2.042012674685e-10       2.510527759322e-15       9.050206012563e-14       1.749805872788e-15       3.079754164593e-10       3.017116719634e-11      -1.729286836704e-14 
   21       2.055197877807e-10       2.792413287860e-15       9.058430031689e-14       1.906654877858e-15       2.824106501589e-10       2.780355460504e-11      -1.083177595553e-14 
   22       2.068771511256e-10       3.103222281742e-15       9.067261009865e-14       2.067417488972e-15       2.597240363991e-10       2.572848774366e-11      -6.740018930563e-15 
   23       2.082919798062e-10       3.441764458608e-15       9.075212442285e-14       2.231995488134e-15       2.396003610914e-10       2.390753613638e-11      -5.077571054117e-15 
   24       2.097575807483e-10       3.806260948357e-15       9.068960367841e-14       2.400281846399e-15       2.215724741061e-10       2.226319414155e-11      -5.382353364140e-15 
   25       2.112705131518e-10       4.196780239668e-15       9.027834808059e-14       2.572084223809e-15       2.054261082505e-10       2.075652562068e-11      -7.059260187842e-15 
   26       2.128026241008e-10       4.613839809636e-15       8.924891565943e-14       2.747190057020e-15       1.908668559072e-10       1.935306698106e-11      -9.334486878386e-15 
   27       2.143643543138e-10       5.057841212099e-15       8.735316882822e-14       2.925343441081e-15       1.777187314841e-10       1.807049178622e-11      -1.148837204063e-14 
   28       2.159591447519e-10       5.529168433386e-15       8.434587014670e-14       3.106286677246e-15       1.657539006230e-10       1.693036667989e-11      -1.284501488237e-14 
   29       2.176003166909e-10       6.028699205546e-15       8.010486023040e-14       3.289800114005e-15       1.549097734123e-10       1.592034706376e-11      -1.332717201224e-14 
   30       2.192799827974e-10       6.557489807209e-15       7.454429897251e-14       3.475689510762e-15       1.450682022668e-10       1.500269268073e-11      -1.308664461424e-14 
   31       2.209710608358e-10       7.116648105665e-15       6.760124933080e-14       3.663765717920e-15       1.360266364740e-10       1.413245383338e-11      -1.233185889872e-14 
   32       2.226846822914e-10       7.707344512997e-15       5.931505770535e-14       3.853789807918e-15       1.277375724071e-10       1.331146965937e-11      -1.125350283038e-14 
   33       2.244294763714e-10       8.330810124402e-15       4.978148806426e-14       4.045507757470e-15       1.201419388183e-10       1.255327339055e-11      -1.007962649032e-14 
   34       2.262001864067e-10       8.988220768650e-15       3.910110609935e-14       4.238669679710e-15       1.131329221595e-10       1.186609625871e-11      -9.052611456199e-15 
   35       2.279981367398e-10       9.680293888613e-15       2.726161301676e-14       4.433047954412e-15       1.066739685873e-10       1.124370645395e-11      -8.266701001768e-15 
   36       2.298145868550e-10       1.040754112114e-14       1.421474432100e-14       4.628425820384e-15       1.007124805916e-10       1.067035565385e-11      -7.775372658832e-15 
   37       2.316337259009e-10       1.117042124930e-14      -9.029202416474e-17       4.824582666098e-15       9.517003400054e-11       1.012819529117e-11      -7.610164926145e-15 
   38       2.334676523917e-10       1.196952976882e-14      -1.569631939369e-14       5.021258722883e-15       9.003180874603e-11       9.616702025344e-12      -7.698920218535e-15 
   39       2.353308522677e-10       1.280546286884e-14      -3.264595905077e-14       5.218178337996e-15       8.528109517782e-11       9.139091964902e-12      -7.918066336805e-15 
   40       2.372296382504e-10       1.367876192594e-14      -5.098488054787e-14       5.415058761642e-15       8.087211124331e-11       8.696898156225e-12      -8.111751899188e-15 
   41       2.391636186834e-10       1.458995067557e-14      -7.076100985525e-14       5.611617202058e-15       7.674583051253e-11       8.289784144564e-12      -8.133139361122e-15 
   42       2.411329304762e-10       1.553967018988e-14      -9.202101491994e-14       5.807595999997e-15       7.288974869635e-11       7.915329469689e-12      -7.989591793032e-15 
   43       2.431317844055e-10       1.652858160113e-14      -1.148132563352e-13       6.002744776270e-15       6.929331225566e-11       7.568881806641e-12      -7.741149845017e-15 
   44       2.451455058500e-10       1.755732813627e-14      -1.391890870054e-13       6.196813567142e-15       6.592999192762e-11       7.243392087228e-12      -7.462011340294e-15 
   45       2.471577704330e-10       1.862646538603e-14      -1.651913574433e-13       6.389548565174e-15       6.276666738056e-11       6.931488155095e-12      -7.225249267118e-15 
   46       2.491767082900e-10       1.973622942946e-14      -1.928152138644e-13       6.580677820798e-15       5.979811751008e-11       6.632846467097e-12      -7.049515239212e-15 
   47       2.512152917818e-10       2.088669781648e-14      -2.220360277176e-13       6.769921267915e-15       5.702068258799e-11       6.348727223903e-12      -6.937847893646e-15 
   48       2.532837037771e-10       2.207784759716e-14      -2.528197326191e-13       6.956994375089e-15       5.442186715479e-11       6.079873477495e-12      -6.892344088247e-15 
   49       2.553890273951e-10       2.330955043538e-14      -2.851224102562e-13       7.141607901273e-15       5.197968447755e-11       5.826466002335e-12      -6.914079587612e-15 
   50       2.575351825488e-10       2.458162791576e-14      -3.189019607615e-13       7.323480674480e-15       4.966922714812e-11       5.588218754799e-12      -7.001192863491e-15 
   51       2.597234350675e-10       2.589404649940e-14      -3.541578090568e-13       7.502382583688e-15       4.748600232657e-11       5.364800497401e-12      -7.142707320499e-15 
   52       2.619514894704e-10       2.724676704018e-14      -3.909012605571e-13       7.678102834361e-15       4.542779744109e-11       5.155449611739e-12      -7.322895084319e-15 
   53       2.642129626847e-10       2.863968721144e-14      -4.291445096089e-13       7.850438305272e-15       4.348769964787e-11       4.958805913576e-12      -7.522805502899e-15 
   54       2.664970854019e-10       3.007263945217e-14      -4.689007940749e-13       8.019193917077e-15       4.165378034266e-11       4.772872139924e-12      -7.720099390791e-15 
   55       2.687930064204e-10       3.154541529098e-14      -5.101835762125e-13       8.184184955142e-15       3.991269704858e-11       4.595559198215e-12      -7.894529133657e-15 
   56       2.711046420093e-10       3.305785009919e-14      -5.530034928762e-13       8.345243869385e-15       3.826226965685e-11       4.426568761341e-12      -8.046352945184e-15 
   57       2.734389923477e-10       3.460975579480e-14      -5.973709184477e-13       8.502215809241e-15       3.670147579151e-11       4.265910891242e-12      -8.182204772840e-15 
   58       2.758017450274e-10       3.620089530571e-14      -6.432969862726e-13       8.654957252446e-15       3.522664783860e-11       4.113345826103e-12      -8.309902260202e-15 
   59       2.781971557470e-10       3.783098154363e-14      -6.907937053085e-13       8.803336449746e-15       3.383131008276e-11       3.968368211417e-12      -8.438500959866e-15 
   60       2.806279290049e-10       3.949967637794e-14      -7.398740767740e-13       8.947233869608e-15       3.250601584390e-11       3.830191331042e-12      -8.578348546366e-15 
   61       2.830958197014e-10       4.120657751271e-14      -7.905472899757e-13       9.086540175896e-15       3.124094744705e-11       3.697982986160e-12      -8.738024831511e-15 
   62       2.856038656483e-10       4.295117799686e-14      -8.428027857893e-13       9.221148624372e-15       3.003476653645e-11       3.571670676017e-12      -8.914236545873e-15 
   63       2.881544467392e-10       4.473289576342e-14      -8.966228067711e-13       9.350961740889e-15       2.888747034626e-11       3.451289988886e-12      -9.099740211673e-15 
   64       2.907485137370e-10       4.655108354253e-14      -9.519869636225e-13       9.475893997007e-15       2.779773045277e-11       3.336741272099e-12      -9.286212473014e-15 
   65       2.933854918414e-10       4.840502745152e-14      -1.008872195704e-12       9.595872176427e-15       2.676281757359e-11       3.227781847712e-12      -9.464205497659e-15 
   66       2.960631842563e-10       5.029394558502e-14      -1.067252731551e-12       9.710835741426e-15       2.577852636692e-11       3.124018228157e-12      -9.623102378810e-15 
   67       2.987776757568e-10       5.221698660500e-14      -1.127100049387e-12       9.820737199291e-15       2.483910023077e-11       3.024898331905e-12      -9.751072536892e-15 
   68       3.015250842470e-10       5.417323490503e-14      -1.188385780075e-12       9.925533689296e-15       2.393875362272e-11       2.929860628389e-12      -9.837900240867e-15 
   69       3.043074431180e-10       5.616173046961e-14      -1.251091187291e-12       1.002515894499e-14       2.307676530799e-11       2.838834065997e-12      -9.884235396748e-15 
   70       3.071278430508e-10       5.818145052449e-14      -1.315199546174e-12       1.011954628292e-14       2.225328678537e-11       2.751825923953e-12      -9.894145706585e-15 
   71       3.099886411993e-10       6.023130209912e-14      -1.380693405983e-12       1.020863701874e-14       2.146780235216e-11       2.668770142705e-12      -9.872437764995e-15 
   72       3.128914120203e-10       6.231012078482e-14      -1.447554625859e-12       1.029238060916e-14       2.071909476071e-11       2.589523553116e-12      -9.824685942255e-15 
   73       3.158368981047e-10       6.441666949305e-14      -1.515764410600e-12       1.037073479378e-14       2.000521087493e-11       2.513862105659e-12      -9.757261267404e-15 
   74       3.188249610074e-10       6.654963721360e-14      -1.585303346425e-12       1.044366573704e-14       1.932342732685e-11       2.441477099614e-12      -9.677360311341e-15 
   75       3.218545320779e-10       6.870763777285e-14      -1.656151436746e-12       1.051114817009e-14       1.867021617311e-11       2.371971412261e-12      -9.593034069921e-15 
   76       3.249244601437e-10       7.088925589859e-14      -1.728287050450e-12       1.057316526010e-14       1.804211150540e-11       2.304958021772e-12      -9.511466764580e-15 
   77       3.280363417099e-10       7.309319785748e-14      -1.801683466272e-12       1.062970787703e-14       1.743856764304e-11       2.240384653028e-12      -9.433386039596e-15 
   78       3.311921199266e-10       7.531816615862e-14      -1.876311760331e-12       1.068077545032e-14       1.685956217195e-11       2.178261756786e-12      -9.357681176293e-15 
   79       3.343932032410e-10       7.756281441654e-14      -1.952141850960e-12       1.072637636374e-14       1.630472561703e-11       2.118563821791e-12      -9.283055856498e-15 
   80       3.376404346182e-10       7.982574707949e-14      -2.029142512175e-12       1.076652809166e-14       1.577332557345e-11       2.061227701586e-12      -9.208021158775e-15 
   81       3.409340607630e-10       8.210551915770e-14      -2.107281387140e-12       1.080125733542e-14       1.526425083796e-11       2.006150941320e-12      -9.130888554671e-15 
   82       3.442737013405e-10       8.440063595171e-14      -2.186525001644e-12       1.083060015954e-14       1.477599554028e-11       1.953190104558e-12      -9.049762904949e-15 
   83       3.476583181975e-10       8.670955278060e-14      -2.266838777563e-12       1.085460212813e-14       1.430664327432e-11       1.902159100091e-12      -8.962535455830e-15 
   84       3.510868451347e-10       8.903067867424e-14      -2.348186140733e-12       1.087331355115e-14       1.385432687435e-11       1.852875738180e-12      -8.867484354429e-15 
   85       3.545602645998e-10       9.136238874836e-14      -2.430525645132e-12       1.088677401941e-14       1.341873007957e-11       1.805313932214e-12      -8.765205920514e-15 
   86       3.580798204355e-10       9.370301339238e-14      -2.513813394424e-12       1.089502554382e-14       1.299980687670e-11       1.759473778467e-12      -8.656992186248e-15 
   87       3.616463685508e-10       9.605083428577e-14      -2.598003903448e-12       1.089811727074e-14       1.259732023064e-11       1.715334720165e-12      -8.544255002604e-15 
   88       3.652603572443e-10       9.840408419300e-14      -2.683050096461e-12       1.089610553608e-14       1.221083420984e-11       1.672854684872e-12      -8.428529246011e-15 
   89       3.689218075269e-10       1.007609467584e-13      -2.768903305391e-12       1.088905391943e-14       1.183970611159e-11       1.631969221880e-12      -8.311476025001e-15 
   90       3.726302934445e-10       1.031195563012e-13      -2.855513268081e-12       1.087703329822e-14       1.148307858743e-11       1.592590639598e-12      -8.194885886854e-15 
   91       3.763849224014e-10       1.054779976101e-13      -2.942828126542e-12       1.086012190176e-14       1.113987176846e-11       1.554607142938e-12      -8.080682024246e-15 
   92       3.801843154828e-10       1.078343057386e-13      -3.030794425202e-12       1.083840536546e-14       1.080877539072e-11       1.517881970706e-12      -7.970923481892e-15 
   93       3.840271545812e-10       1.101865100330e-13      -3.119358262561e-12       1.081197288295e-14       1.048855561906e-11       1.482286090865e-12      -7.867389524428e-15 
   94       3.879139606453e-10       1.125327742367e-13      -3.208468948114e-12       1.078090488309e-14       1.017904540989e-11       1.447803784935e-12      -7.770254268473e-15 
   95       3.918455477433e-10       1.148712771766e-13      -3.298075894751e-12       1.074528359109e-14       9.880289232700e-12       1.414441422504e-12      -7.679217716382e-15 
   96       3.958224683524e-10       1.172001708040e-13      -3.388127528249e-12       1.070519676577e-14       9.592238136094e-12       1.382194921698e-12      -7.593904325226e-15 
   97       3.998450014621e-10       1.195175805966e-13      -3.478571301349e-12       1.066073770019e-14       9.314746192987e-12       1.351049347217e-12      -7.513860464104e-15 
   98       4.039131406774e-10       1.218216059604e-13      -3.569353707841e-12       1.061200522218e-14       9.047566945752e-12       1.320978508365e-12      -7.438551871458e-15 
   99       4.080265823221e-10       1.241103206322e-13      -3.660420296641e-12       1.055910369489e-14       8.790349851393e-12       1.291944557081e-12      -7.367361112392e-15 
  100       4.121847135424e-10       1.263817730815e-13      -3.751715685878e-12       1.050214301740e-14       8.542636726704e-12       1.263897585974e-12      -7.299585035980e-15 
  101       4.163866004097e-10       1.286339869125e-13      -3.843183576970e-12       1.044123862522e-14       8.303858193441e-12       1.236775226351e-12      -7.234432232589e-15 
  102       4.206309760245e-10       1.308649612664e-13      -3.934766768710e-12       1.037651149088e-14       8.073330123484e-12       1.210502246254e-12      -7.171020491188e-15 
  103       4.249162286192e-10       1.330726712230e-13      -4.026407171342e-12       1.030808812452e-14       7.850250084006e-12       1.184990148484e-12      -7.108374256665e-15 
  104       4.292408327853e-10       1.352551078013e-13      -4.118045661913e-12       1.023609584670e-14       7.633876764095e-12       1.160157498092e-12      -7.045622005440e-15 
  105       4.336047351202e-10       1.374104032459e-13      -4.209621597725e-12       1.016064787864e-14       7.424103515279e-12       1.135994897894e-12      -6.982624214337e-15 
  106       4.380081344536e-10       1.395367234931e-13      -4.301073263101e-12       1.008185622957e-14       7.220956021419e-12       1.112508081676e-12      -6.919425875766e-15 
  107       4.424510484963e-10       1.416322309113e-13      -4.392338034441e-12       9.999836193815e-15       7.024414710410e-12       1.089697796468e-12      -6.856063812966e-15 
