# dimensionless total lensed [l(l+1)/2pi] C_l's
# for l=2 to 2500, i.e. number of multipoles equal to 2499
#
# -> if you prefer output in CAMB/HealPix/LensPix units/order, set 'format' to 'camb' in input file
# -> if you don't want to see such a header, set 'headers' to 'no' in input file
# -> for CMB lensing (phi), these are C_l^phi-phi for the lensing potential.
#    Remember the conversion factors:
#    C_l^dd (deflection) = l(l+1) C_l^phi-phi
#    C_l^gg (shear/convergence) = 1/4 (l(l+1))^2 C_l^phi-phi
#
# 1:l     2:TT                     3:EE                     4:TE                     5:BB                     6:phiphi                 7:TPhi                   8:Ephi               
    2       2.854630389228e-10       7.807005734758e-15       5.603733865298e-13       4.801786089680e-15       8.271548891443e-09       4.685317386222e-10      -2.069951237988e-12 
    3       2.442196251721e-10       1.011749271067e-14       4.540260826081e-13       4.836908156037e-15       5.148783777928e-09       3.328197752046e-10      -1.657347107229e-12 
    4       2.251820945452e-10       9.682437754823e-15       3.882083425283e-13       4.207431793937e-15       3.586421641969e-09       2.520674603294e-10      -1.177770079518e-12 
    5       2.145297038429e-10       7.469999730288e-15       3.249305133256e-13       3.296699131392e-15       2.677515259530e-09       1.991585725081e-10      -7.495395397803e-13 
    6       2.075513952246e-10       4.913670432458e-15       2.623739519480e-13       2.393072578021e-15       2.090123086037e-09       1.621014132226e-10      -4.080426496410e-13 
    7       2.029956544768e-10       2.948374576904e-15       2.059099278437e-13       1.655463713241e-15       1.684562377137e-09       1.348671059039e-10      -1.621520266858e-13 
    8       2.000135541155e-10       1.818222064963e-15       1.591330895302e-13       1.137022119990e-15       1.391623249343e-09       1.141730319281e-10      -5.662351357229e-15 
    9       1.981707808723e-10       1.331368467844e-15       1.236881804621e-13       8.259015999169e-16       1.172236430342e-09       9.808902374366e-11       7.613605336819e-14 
   10       1.971437913433e-10       1.186519441431e-15       9.950048381616e-14       6.801886522021e-16       1.002639950115e-09       8.531935118163e-11       1.021382986578e-13 
   11       1.966260682389e-10       1.169758038719e-15       8.526323736605e-14       6.517175411540e-16       8.436453010237e-10       7.518727389456e-11       9.186093888377e-14 
   12       1.965423979625e-10       1.194175090437e-15       7.881129565297e-14       6.984913009898e-16       7.370769744587e-10       6.657346122014e-11       6.311773981467e-14 
   13       1.967529952497e-10       1.250147169458e-15       7.768071519850e-14       7.897782778128e-16       6.496077079944e-10       5.932633966158e-11       2.906966894851e-14 
   14       1.971824348914e-10       1.346999421374e-15       7.958669456797e-14       9.053873163186e-16       5.768337125732e-10       5.324449609116e-11      -9.944626848883e-16 
   15       1.978015160752e-10       1.483669572413e-15       8.265799072184e-14       1.034120445245e-15       5.155874787886e-10       4.810520011429e-11      -2.218886376252e-14 
   16       1.985286562698e-10       1.649591445364e-15       8.572044152220e-14       1.170475058748e-15       4.635206694692e-10       4.367995167078e-11      -3.331494466297e-14 
   17       1.994161596756e-10       1.835847157841e-15       8.812911718440e-14       1.311678023348e-15       4.188586123459e-10       3.973693755754e-11      -3.583387739316e-14 
   18       2.003670186626e-10       2.040119779384e-15       8.961775560756e-14       1.457390287262e-15       3.800954003137e-10       3.630795582041e-11      -3.220471154979e-14 
   19       2.013984042629e-10       2.266329016543e-15       9.034941767993e-14       1.607395660343e-15       3.466180179476e-10       3.334747381679e-11      -2.499242123255e-14 
   20       2.024816032851e-10       2.519753769105e-15       9.065054268447e-14       1.761455443344e-15       3.171348861926e-10       3.068579482965e-11      -1.731613561161e-14 
   21       2.036274986791e-10       2.802137372512e-15       9.076722541737e-14       1.919469115439e-15       2.911825410161e-10       2.831357397841e-11      -1.085840582545e-14 
   22       2.048046666646e-10       3.113357748948e-15       9.089725818395e-14       2.081451753833e-15       2.681398790195e-10       2.623279808235e-11      -6.764937176980e-15 
   23       2.060318440730e-10       3.452205476700e-15       9.102748375744e-14       2.247305116432e-15       2.476895831850e-10       2.440546583076e-11      -5.096831911533e-15 
   24       2.073024470088e-10       3.816877642871e-15       9.102682639922e-14       2.416922147464e-15       2.293582736766e-10       2.275493947747e-11      -5.394044884291e-15 
   25       2.086130561296e-10       4.207409358355e-15       9.069001077410e-14       2.590110478413e-15       2.129302593797e-10       2.124236844051e-11      -7.063130144789e-15 
   26       2.099355234063e-10       4.624280912664e-15       8.974889283468e-14       2.766657515303e-15       1.981083461847e-10       1.983301906734e-11      -9.331941950672e-15 
   27       2.112804410609e-10       5.067864016626e-15       8.795716163588e-14       2.946307321281e-15       1.847150208431e-10       1.854440807204e-11      -1.148186818130e-14 
   28       2.126514317923e-10       5.538512385530e-15       8.507165728641e-14       3.128802164484e-15       1.725196317429e-10       1.739794962756e-11      -1.283769802758e-14 
   29       2.140618795026e-10       6.037062974776e-15       8.097232808850e-14       3.313922361378e-15       1.614596300663e-10       1.638144261037e-11      -1.332180457840e-14 
   30       2.155039040039e-10       6.564525071927e-15       7.557554586986e-14       3.501473638962e-15       1.514157070602e-10       1.545734382068e-11      -1.308504373632e-14 
   31       2.169504283445e-10       7.121955839058e-15       6.882057821089e-14       3.691266815373e-15       1.421824325073e-10       1.458085496517e-11      -1.233471447376e-14 
   32       2.184126863284e-10       7.710474034775e-15       6.074846523112e-14       3.883062934842e-15       1.337122062635e-10       1.375393575603e-11      -1.126081826343e-14 
   33       2.198994441308e-10       8.331256183330e-15       5.145645085557e-14       4.076607947755e-15       1.259454520770e-10       1.299018593257e-11      -1.009074580706e-14 
   34       2.214055993738e-10       8.985420273281e-15       4.104667902784e-14       4.271651943262e-15       1.187737918549e-10       1.229780989186e-11      -9.066203766941e-15 
   35       2.229326752445e-10       9.673624322157e-15       2.950920786729e-14       4.467967283979e-15       1.121604885790e-10       1.167036099462e-11      -8.281189885299e-15 
   36       2.244721585250e-10       1.039631771826e-14       1.679846727932e-14       4.665337195943e-15       1.060523253274e-10       1.109173261776e-11      -7.789075720441e-15 
   37       2.260084245436e-10       1.115389390851e-14       2.866359168687e-15       4.863541059816e-15       1.003696376279e-10       1.054371372485e-11      -7.621433154363e-15 
   38       2.275534988060e-10       1.194688082571e-14      -1.232781034824e-14       5.062319109016e-15       9.509771994337e-11       1.002584339433e-11      -7.706669052440e-15 
   39       2.291216770469e-10       1.277580419520e-14      -2.882472586272e-14       5.261395700144e-15       9.021986440609e-11       9.541531485038e-12      -7.922059922276e-15 
   40       2.307190175361e-10       1.364113173442e-14      -4.666817281145e-14       5.460488099225e-15       8.568956190215e-11       9.092521261188e-12      -8.112798432450e-15 
   41       2.323449256374e-10       1.454330997916e-14      -6.590409746611e-14       5.659313538078e-15       8.144670481097e-11       8.678677956559e-12      -8.132986634902e-15 
   42       2.339997893108e-10       1.548289821189e-14      -8.657657001316e-14       5.857614392117e-15       7.747878813615e-11       8.297689499405e-12      -7.989776255113e-15 
   43       2.356782458306e-10       1.646047180820e-14      -1.087311016656e-13       6.055140326383e-15       7.377525585541e-11       7.944975823572e-12      -7.742572286288e-15 
   44       2.373661178799e-10       1.747658446730e-14      -1.324160837655e-13       6.251641430662e-15       7.030913492484e-11       7.613544912669e-12      -7.464786408903e-15 
   45       2.390475317330e-10       1.853170037839e-14      -1.576714285270e-13       6.446863959673e-15       6.704666673247e-11       7.296055190624e-12      -7.228722212841e-15 
   46       2.407306177737e-10       1.962596887940e-14      -1.844898273803e-13       6.640536031287e-15       6.398271460812e-11       6.992153504511e-12      -7.052861422673e-15 
   47       2.424281881013e-10       2.075938073924e-14      -2.128443537916e-13       6.832377655315e-15       6.111371884581e-11       6.703030940212e-12      -6.940248266660e-15 
   48       2.441502129306e-10       2.193182443118e-14      -2.426986797190e-13       7.022104386176e-15       5.842701814749e-11       6.429328357864e-12      -6.893000487617e-15 
   49       2.459035073633e-10       2.314308128944e-14      -2.740066670692e-13       7.209427079055e-15       5.590017276862e-11       6.171088978286e-12      -6.912231079375e-15 
   50       2.476917641674e-10       2.439287932159e-14      -3.067238503023e-13       7.394064665378e-15       5.350772275160e-11       5.927897923471e-12      -6.996144343240e-15 
   51       2.495163892895e-10       2.568108310231e-14      -3.408465065013e-13       7.575787133118e-15       5.124519556294e-11       5.699455490498e-12      -7.133896366875e-15 
   52       2.513753516996e-10       2.700754705210e-14      -3.763824842384e-13       7.754383791511e-15       4.911044507351e-11       5.485077529076e-12      -7.309932758481e-15 
   53       2.532625673054e-10       2.837205925290e-14      -4.133403867800e-13       7.929651631466e-15       4.709646681549e-11       5.283484388178e-12      -7.505508390212e-15 
   54       2.551676020082e-10       2.977433936503e-14      -4.517297231259e-13       8.101395694398e-15       4.519107101444e-11       5.092762300309e-12      -7.698523220278e-15 
   55       2.570799077885e-10       3.121406321934e-14      -4.915600496813e-13       8.269431390007e-15       4.338060017224e-11       4.910889575090e-12      -7.868942422822e-15 
   56       2.590034435576e-10       3.269094851996e-14      -5.328377995578e-13       8.433591278913e-15       4.166291234807e-11       4.737556719654e-12      -8.017009659228e-15 
   57       2.609451663169e-10       3.420468678327e-14      -5.755689301609e-13       8.593720621007e-15       4.003705049315e-11       4.572730836743e-12      -8.149270803934e-15 
   58       2.629106986374e-10       3.575491750689e-14      -6.197599728298e-13       8.749676009207e-15       3.849931478212e-11       4.416114181968e-12      -8.273438282144e-15 
   59       2.649042083260e-10       3.734122712597e-14      -6.654181445514e-13       8.901325814220e-15       3.704309322498e-11       4.267127553637e-12      -8.398444462369e-15 
   60       2.669282880923e-10       3.896314796930e-14      -7.125514596743e-13       9.048550629301e-15       3.565869227912e-11       4.124893682576e-12      -8.534495048966e-15 
   61       2.689845951615e-10       4.062014722680e-14      -7.611642718117e-13       9.191241244673e-15       3.433602826423e-11       3.988498829181e-12      -8.690050853495e-15 
   62       2.710762101109e-10       4.231159331926e-14      -8.112424774845e-13       9.329291033287e-15       3.307379075771e-11       3.857883767318e-12      -8.861860652625e-15 
   63       2.732055963754e-10       4.403678009329e-14      -8.627651744007e-13       9.462602637421e-15       3.187204480025e-11       3.733124226425e-12      -9.042775662607e-15 
   64       2.753737927070e-10       4.579493481032e-14      -9.157089055735e-13       9.591090647335e-15       3.072947453106e-11       3.614162703139e-12      -9.224580547997e-15 
   65       2.775803169536e-10       4.758521678584e-14      -9.700476260387e-13       9.714681967653e-15       2.964330457098e-11       3.500800678433e-12      -9.397949353977e-15 
   66       2.798230698384e-10       4.940671602864e-14      -1.025752669572e-12       9.833316183743e-15       2.860922140557e-11       3.392690834737e-12      -9.552401438675e-15 
   67       2.820982387388e-10       5.125845188016e-14      -1.082792715405e-12       9.946945928090e-15       2.762129476824e-11       3.289329273069e-12      -9.676257405480e-15 
   68       2.844020365099e-10       5.313938080142e-14      -1.141136518375e-12       1.005552847135e-14       2.667356097412e-11       3.190196428976e-12      -9.759430289033e-15 
   69       2.867365421716e-10       5.504842460787e-14      -1.200761816140e-12       1.015899769795e-14       2.576532120288e-11       3.095230374051e-12      -9.802554367045e-15 
   70       2.891048762809e-10       5.698444553752e-14      -1.261648175305e-12       1.025728708409e-14       2.489678048938e-11       3.004435876918e-12      -9.809635419814e-15 
   71       2.915094221956e-10       5.894623650284e-14      -1.323774424399e-12       1.035033811004e-14       2.406744529767e-11       2.917740281422e-12      -9.785407075742e-15 
   72       2.939517767854e-10       6.093251996397e-14      -1.387118691274e-12       1.043810040213e-14       2.327608740919e-11       2.834989526800e-12      -9.735359256538e-15 
   73       2.964327011433e-10       6.294194680202e-14      -1.451658440498e-12       1.052053187462e-14       2.252070781109e-11       2.755944167844e-12      -9.665766622419e-15 
   74       2.989520712965e-10       6.497309519222e-14      -1.517370510742e-12       1.059759887172e-14       2.179850058437e-11       2.680275395070e-12      -9.583717017311e-15 
   75       3.015088289178e-10       6.702446947721e-14      -1.584231152181e-12       1.066927630951e-14       2.110581679219e-11       2.607561054886e-12      -9.497139914049e-15 
   76       3.041018317452e-10       6.909454647624e-14      -1.652214997789e-12       1.073554755029e-14       2.043907005288e-11       2.537389767935e-12      -9.413116695509e-15 
   77       3.067326928311e-10       7.118192665282e-14      -1.721291678010e-12       1.079640368552e-14       1.979772373192e-11       2.469704001307e-12      -9.332392888832e-15 
   78       3.094033719013e-10       7.328520859420e-14      -1.791428653821e-12       1.085184437939e-14       1.918178540189e-11       2.404512617307e-12      -9.253912240478e-15 
   79       3.121152912377e-10       7.540294386929e-14      -1.862592243349e-12       1.090187825908e-14       1.859089695274e-11       2.341786590630e-12      -9.176439425078e-15 
   80       3.148693048389e-10       7.753363687465e-14      -1.934747637394e-12       1.094652305123e-14       1.802431779006e-11       2.281457245167e-12      -9.098553258293e-15 
   81       3.176656675800e-10       7.967574468041e-14      -2.007858914967e-12       1.098580571833e-14       1.748090803334e-11       2.223414490813e-12      -9.018639909670e-15 
   82       3.205040043736e-10       8.182767687620e-14      -2.081889058822e-12       1.101976259527e-14       1.695911171418e-11       2.167505060279e-12      -8.934886115494e-15 
   83       3.233832793298e-10       8.398779541713e-14      -2.156799970983e-12       1.104843952574e-14       1.645693997459e-11       2.113530745893e-12      -8.845272391644e-15 
   84       3.263024280172e-10       8.615442122125e-14      -2.232551688167e-12       1.107188710023e-14       1.597245436403e-11       2.061299053414e-12      -8.748151364898e-15 
   85       3.292624422294e-10       8.832585555599e-14      -2.309099844575e-12       1.109014516406e-14       1.550534559116e-11       2.010788674034e-12      -8.644107792270e-15 
   86       3.322645758922e-10       9.050036193118e-14      -2.386397815001e-12       1.110325597937e-14       1.505558690740e-11       1.962008338945e-12      -8.534395883266e-15 
   87       3.353096932880e-10       9.267615962277e-14      -2.464397479610e-12       1.111126894858e-14       1.462294900534e-11       1.914945972105e-12      -8.420384599298e-15 
   88       3.383982493600e-10       9.485142363224e-14      -2.543049226017e-12       1.111424066849e-14       1.420699162203e-11       1.869567808001e-12      -8.303560700464e-15 
   89       3.415302700175e-10       9.702428464599e-14      -2.622301951377e-12       1.111223498445e-14       1.380705514222e-11       1.825817509419e-12      -8.185531792331e-15 
   90       3.447053324409e-10       9.919282899480e-14      -2.702103064465e-12       1.110532304450e-14       1.342225220165e-11       1.783615285204e-12      -8.068029372706e-15 
   91       3.479225453865e-10       1.013550986132e-13      -2.782398487763e-12       1.109358335345e-14       1.305145929034e-11       1.742857008030e-12      -7.952911878420e-15 
   92       3.511805294915e-10       1.035090909991e-13      -2.863132659546e-12       1.107710182707e-14       1.269330835580e-11       1.703413332166e-12      -7.842167732105e-15 
   93       3.544779645156e-10       1.056528051796e-13      -2.944249659076e-12       1.105596792955e-14       1.234651131654e-11       1.665161363803e-12      -7.737514216593e-15 
   94       3.578153679927e-10       1.077843876075e-13      -3.025696771252e-12       1.103026230391e-14       1.201090767070e-11       1.628087036955e-12      -7.639118469507e-15 
   95       3.611935489195e-10       1.099020082345e-13      -3.107421464435e-12       1.100006737262e-14       1.168655965624e-11       1.592196575384e-12      -7.546688864285e-15 
   96       3.646130529006e-10       1.120038170432e-13      -3.189370332369e-12       1.096547108890e-14       1.137342960405e-11       1.557484882415e-12      -7.459859574965e-15 
   97       3.680741502362e-10       1.140879446375e-13      -3.271489111688e-12       1.092656693699e-14       1.107137611104e-11       1.523935105542e-12      -7.378188074961e-15 
   98       3.715768240092e-10       1.161525028339e-13      -3.353722699411e-12       1.088345393264e-14       1.078015021322e-11       1.491518201038e-12      -7.301152635835e-15 
   99       3.751207581722e-10       1.181955852520e-13      -3.436015170449e-12       1.083623662335e-14       1.049939155875e-11       1.460192498568e-12      -7.228149826062e-15 
  100       3.787053256351e-10       1.202152679061e-13      -3.518309795104e-12       1.078502508886e-14       1.022862458103e-11       1.429903265795e-12      -7.158492009809e-15 
  101       3.823295763518e-10       1.222096097956e-13      -3.600549056572e-12       1.072993494143e-14       9.967254671790e-12       1.400582272990e-12      -7.091404845695e-15 
  102       3.859922254077e-10       1.241766534960e-13      -3.682674668441e-12       1.067108732626e-14       9.714564354126e-12       1.372147357644e-12      -7.026024785573e-15 
  103       3.896916411070e-10       1.261144257502e-13      -3.764627592198e-12       1.060860892184e-14       9.469709455603e-12       1.344501989073e-12      -6.961396573292e-15 
  104       3.934262785554e-10       1.280209792574e-13      -3.846347950190e-12       1.054262722008e-14       9.231910450317e-12       1.317557523745e-12      -6.896666564617e-15 
  105       3.971960727739e-10       1.298945231974e-13      -3.927774713441e-12       1.047325563976e-14       9.001064164972e-12       1.291304332902e-12      -6.831697815758e-15 
  106       4.010012124415e-10       1.317333115222e-13      -4.008846004093e-12       1.040060639347e-14       8.777207955569e-12       1.265749516282e-12      -6.766533808137e-15 
  107       4.048417042722e-10       1.335356043630e-13      -4.089499212338e-12       1.032479497737e-14       8.560330255470e-12       1.240894885612e-12      -6.701209701877e-15 
