# dimensionless total lensed [l(l+1)/2pi] C_l's
# for l=2 to 2500, i.e. number of multipoles equal to 2499
#
# -> if you prefer output in CAMB/HealPix/LensPix units/order, set 'format' to 'camb' in input file
# -> if you don't want to see such a header, set 'headers' to 'no' in input file
# -> for CMB lensing (phi), these are C_l^phi-phi for the lensing potential.
#    Remember the conversion factors:
#    C_l^dd (deflection) = l(l+1) C_l^phi-phi
#    C_l^gg (shear/convergence) = 1/4 (l(l+1))^2 C_l^phi-phi
#
# 1:l     2:TT                     3:EE                     4:TE                     5:BB                     6:phiphi                 7:TPhi                   8:Ephi               
    2       2.854630406881e-10       7.807008000569e-15       5.603733865168e-13       4.801788355491e-15       8.287935995112e-09       4.689126794739e-10      -2.069993881104e-12 
    3       2.442196286930e-10       1.011749724276e-14       4.540260825505e-13       4.836912688126e-15       5.160099350701e-09       3.331218894292e-10      -1.657373589083e-12 
    4       2.251821003918e-10       9.682445309314e-15       3.882083423632e-13       4.207439348431e-15       3.594578853564e-09       2.523130878857e-10      -1.177780830116e-12 
    5       2.145297125731e-10       7.470011063859e-15       3.249305129506e-13       3.296710464974e-15       2.683764150327e-09       1.993639467810e-10      -7.495398919903e-13 
    6       2.075514073816e-10       4.913686302413e-15       2.623739512133e-13       2.393088448006e-15       2.095310599969e-09       1.622777874053e-10      -4.080369587337e-13 
    7       2.029956705870e-10       2.948395741220e-15       2.059099265450e-13       1.655484877626e-15       1.689101987830e-09       1.350212439754e-10      -1.621434562325e-13 
    8       2.000135746870e-10       1.818249282289e-15       1.591330874039e-13       1.137049337466e-15       1.395591660539e-09       1.143085509852e-10      -5.653073779899e-15 
    9       1.981708063936e-10       1.331402497462e-15       1.236881771810e-13       8.259356298350e-16       1.175650351431e-09       9.820841144149e-11       7.614467411369e-14 
   10       1.971438222831e-10       1.186561043176e-15       9.950047898677e-14       6.802302545067e-16       1.005622513605e-09       8.542527578609e-11       1.021455574082e-13 
   11       1.966261050455e-10       1.169807972853e-15       8.526323052800e-14       6.517674762765e-16       8.459688756098e-10       7.527881727046e-11       9.186575555726e-14 
   12       1.965424410644e-10       1.194234117490e-15       7.881128627928e-14       6.985503297093e-16       7.391232477656e-10       6.665567671695e-11       6.312137421019e-14 
   13       1.967530450564e-10       1.250216050029e-15       7.768070269743e-14       7.898471610884e-16       6.514234642439e-10       5.940072358759e-11       2.907245202410e-14 
   14       1.971824917945e-10       1.347078915908e-15       7.958667828608e-14       9.054668150992e-16       5.784553205490e-10       5.331216956231e-11      -9.923369771465e-16 
   15       1.978015804497e-10       1.483760440955e-15       8.265796994819e-14       1.034211320266e-15       5.170438152781e-10       4.816696929081e-11      -2.218712704493e-14 
   16       1.985287284764e-10       1.649694447297e-15       8.572041549341e-14       1.170578070318e-15       4.648350294757e-10       4.373642301658e-11      -3.331342515122e-14 
   17       1.994162400619e-10       1.835963051615e-15       8.812908509045e-14       1.311793931145e-15       4.200504306964e-10       3.978860947294e-11      -3.583246304815e-14 
   18       2.003671075658e-10       2.040249322248e-15       8.961771659825e-14       1.457519850127e-15       3.811799825037e-10       3.635528078125e-11      -3.220332027678e-14 
   19       2.013985020112e-10       2.266472964300e-15       9.034937087129e-14       1.607539636124e-15       3.476093687877e-10       3.339088959276e-11      -2.499102251536e-14 
   20       2.024817102000e-10       2.519912875836e-15       9.065048716619e-14       1.761614588709e-15       3.180435958425e-10       3.072564332198e-11      -1.731476711439e-14 
   21       2.036276150773e-10       2.802312390386e-15       9.076716025918e-14       1.919644185794e-15       2.920180791682e-10       2.835021210300e-11      -1.085712243296e-14 
   22       2.048047928593e-10       3.113549427989e-15       9.089718244314e-14       2.081643503207e-15       2.689101648947e-10       2.626658672375e-11      -6.763788739796e-15 
   23       2.060319803755e-10       3.452414564648e-15       9.102739648490e-14       2.247514297471e-15       2.484017167083e-10       2.443674472782e-11      -5.095841133268e-15 
   24       2.073025937296e-10       3.817104885006e-15       9.102672664680e-14       2.417149511398e-15       2.300180675501e-10       2.278399076320e-11      -5.393198110587e-15 
   25       2.086132135785e-10       4.207655497415e-15       9.068989760012e-14       2.590356775140e-15       2.135429719881e-10       2.126946377834e-11      -7.062395467793e-15 
   26       2.099356918933e-10       4.624546688729e-15       8.974876531097e-14       2.766923493439e-15       1.986784550403e-10       1.985840333270e-11      -9.331279302746e-15 
   27       2.112806208960e-10       5.068150167077e-15       8.795701885333e-14       2.946593728311e-15       1.852465282604e-10       1.856825251349e-11      -1.148125331084e-14 
   28       2.126516232856e-10       5.538819644982e-15       8.507149836178e-14       3.129109746889e-15       1.730159050733e-10       1.742033019861e-11      -1.283713001176e-14 
   29       2.140620829624e-10       6.037392075079e-15       8.097215216981e-14       3.314251864855e-15       1.619238759572e-10       1.640242467627e-11      -1.332128677446e-14 
   30       2.155041197366e-10       6.564876742128e-15       7.557535214348e-14       3.501825808606e-15       1.518508105363e-10       1.547699987799e-11      -1.308457802953e-14 
   31       2.169506566542e-10       7.122330805347e-15       6.882036590932e-14       3.691642395856e-15       1.425907114135e-10       1.459925889925e-11      -1.233430125276e-14 
   32       2.184129275143e-10       7.710873020442e-15       6.074823364070e-14       3.883462670611e-15       1.340958491144e-10       1.377117391491e-11      -1.126045712422e-14 
   33       2.198996984863e-10       8.331679908728e-15       5.145619932464e-14       4.077032583254e-15       1.263064791277e-10       1.300635622509e-11      -1.009043581835e-14 
   34       2.214058671853e-10       8.985869455766e-15       4.104640697606e-14       4.272102223132e-15       1.191139150787e-10       1.231301409221e-11      -9.065943099300e-15 
   35       2.229329567899e-10       9.674099675897e-15       2.950891479763e-14       4.468443953133e-15       1.124813184688e-10       1.168469113761e-11      -8.280973833111e-15 
   36       2.244724540724e-10       1.039681995415e-14       1.679815278881e-14       4.665840999748e-15       1.063553239854e-10       1.110525977973e-11      -7.788895736001e-15 
   37       2.260087343496e-10       1.115442373400e-14       2.866022960533e-15       4.864072744231e-15       1.006560424336e-10       1.055648465291e-11      -7.621277277941e-15 
   38       2.275538231167e-10       1.194743894437e-14      -1.232816844662e-14       5.062879420375e-15       9.536872788173e-11       1.003790180076e-11      -7.706525786474e-15 
   39       2.291220160965e-10       1.277639130648e-14      -2.882510588492e-14       5.261985385199e-15       9.047662525350e-11       9.552921987921e-12      -7.921919841432e-15 
   40       2.307193715456e-10       1.364174853345e-14      -4.666857463826e-14       5.461107905279e-15       8.593309199538e-11       9.103286362148e-12      -8.112654941142e-15 
   41       2.323452948144e-10       1.454395715646e-14      -6.590452080946e-14       5.659964212993e-15       8.167784752171e-11       8.688856358693e-12      -8.132836531915e-15 
   42       2.340001738515e-10       1.548357645268e-14      -8.657701439342e-14       5.858296683823e-15       7.769835083984e-11       8.307319646017e-12      -7.989619513109e-15 
   43       2.356786459204e-10       1.646118179198e-14      -1.087315663926e-13       6.055854982732e-15       7.398401519345e-11       7.954095442865e-12      -7.742412452537e-15 
   44       2.373665336927e-10       1.747732686748e-14      -1.324165679204e-13       6.252389199415e-15       7.050778906591e-11       7.622188921587e-12      -7.464631268120e-15 
   45       2.390479634315e-10       1.853247586194e-14      -1.576719309444e-13       6.447645588384e-15       6.723581563832e-11       7.304254437476e-12      -7.228583249193e-15 
   46       2.407310655131e-10       1.962677810618e-14      -1.844903466317e-13       6.641352266840e-15       6.416294324416e-11       6.999936726818e-12      -7.052749163754e-15 
   47       2.424286520309e-10       2.076022436160e-14      -2.128448881665e-13       6.833229243698e-15       6.128560176444e-11       6.710424179918e-12      -6.940170577521e-15 
   48       2.441506931940e-10       2.193270309346e-14      -2.426992272055e-13       7.022992072343e-15       5.859109302728e-11       6.436353342820e-12      -6.892961962583e-15 
   49       2.459040040989e-10       2.314399562754e-14      -2.740072253336e-13       7.210351606777e-15       5.605691198801e-11       6.177761392128e-12      -6.912232399690e-15 
   50       2.476922775089e-10       2.439382996260e-14      -3.067244166729e-13       7.395026777124e-15       5.365752456812e-11       5.934227821664e-12      -6.996182145536e-15 
   51       2.495169193685e-10       2.568207066447e-14      -3.408470779683e-13       7.576787570060e-15       5.138844494286e-11       5.705455100563e-12      -7.133964886820e-15 
   52       2.513758986462e-10       2.700857214448e-14      -3.763830574413e-13       7.755423293416e-15       4.924752037935e-11       5.490763478070e-12      -7.310024122037e-15 
   53       2.532631312495e-10       2.837312247502e-14      -4.133409579898e-13       7.930730936560e-15       4.722772564688e-11       5.288877842353e-12      -7.505612393700e-15 
   54       2.551681830799e-10       2.977544130643e-14      -4.517302882274e-13       8.102515539215e-15       4.531683509863e-11       5.097889099413e-12      -7.698627101927e-15 
   55       2.570805061186e-10       3.121520445947e-14      -4.915606041639e-13       8.270592509462e-15       4.350115108809e-11       4.915779035311e-12      -7.869031705962e-15 
   56       2.590040592736e-10       3.269212962907e-14      -5.328383385355e-13       8.434794407114e-15       4.177852507984e-11       4.742236067471e-12      -8.017072541721e-15 
   57       2.609457995426e-10       3.420590832256e-14      -5.755694483701e-13       8.594966491495e-15       4.014799688750e-11       4.577222917103e-12      -8.149299867400e-15 
   58       2.629113494927e-10       3.575618002834e-14      -6.197604646181e-13       8.750965354994e-15       3.860585556379e-11       4.420436341596e-12      -8.273431231040e-15 
   59       2.649048769271e-10       3.734253117215e-14      -6.654186038672e-13       8.902659367828e-15       3.714546952126e-11       4.271290467321e-12      -8.398404896623e-15 
   60       2.669289745516e-10       3.896449407328e-14      -7.125518800553e-13       9.049929122805e-15       3.575711665290e-11       4.128900122432e-12      -8.534433270175e-15 
   61       2.689852995864e-10       4.062153591228e-14      -7.611646463819e-13       9.192665409961e-15       3.443068359260e-11       3.992344396637e-12      -8.689982874910e-15 
   62       2.710769325965e-10       4.231302510194e-14      -8.112427989735e-13       9.330761603042e-15       3.316485581627e-11       3.861564157061e-12      -8.861801273389e-15 
   63       2.732063370017e-10       4.403825548139e-14      -8.627654351455e-13       9.464120345551e-15       3.195969829153e-11       3.736637330041e-12      -9.042736198893e-15 
   64       2.753745515377e-10       4.579645430466e-14      -9.157090975137e-13       9.592656229209e-15       3.081389108279e-11       3.617508829323e-12      -9.224568252349e-15 
   65       2.775810940348e-10       4.758678088002e-14      -9.700477407118e-13       9.716296160341e-15       2.972465050751e-11       3.503982780253e-12      -9.397966810157e-15 
   66       2.798238651968e-10       4.940832520925e-14      -1.025752698109e-12       9.834979726266e-15       2.868765029258e-11       3.395714743967e-12      -9.552445932012e-15 
   67       2.820990523808e-10       5.126010662694e-14      -1.082792648526e-12       9.948659561687e-15       2.769694273058e-11       3.292203941589e-12      -9.676320268730e-15 
   68       2.844028684201e-10       5.314108158748e-14      -1.141136346382e-12       1.005729293954e-14       2.674654660817e-11       3.192933515295e-12      -9.759497751298e-15 
   69       2.867373923138e-10       5.505017189997e-14      -1.200761528899e-12       1.016081374596e-14       2.583576086028e-11       3.097841695335e-12      -9.802613320301e-15 
   70       2.891057445971e-10       5.698623979630e-14      -1.261647762233e-12       1.025915545880e-14       2.496479091093e-11       3.006932573711e-12      -9.809675224841e-15 
   71       2.915103086049e-10       5.894807818308e-14      -1.323773874462e-12       1.035225956014e-14       2.413314159985e-11       2.920132596350e-12      -9.785419942976e-15 
   72       2.939526811827e-10       6.093440951490e-14      -1.387117992979e-12       1.044007567826e-14       2.333958096729e-11       2.837286573411e-12      -9.735340641495e-15 
   73       2.964336233977e-10       6.294388466753e-14      -1.451657581886e-12       1.052256172954e-14       2.258210403873e-11       2.758153689579e-12      -9.665715635691e-15 
   74       2.989530112500e-10       6.497508181123e-14      -1.517369479387e-12       1.059968406047e-14       2.185789660964e-11       2.682403514373e-12      -9.583636849136e-15 
   75       3.015097863840e-10       6.702650528395e-14      -1.584229935181e-12       1.067141758956e-14       2.116329903023e-11       2.609612012446e-12      -9.497038273455e-15 
   76       3.041028065100e-10       6.909663190043e-14      -1.652213581759e-12       1.073774568133e-14       2.049471438850e-11       2.539366081282e-12      -9.413005183075e-15 
   77       3.067336846634e-10       7.118406211947e-14      -1.721290049063e-12       1.079865942786e-14       1.985160431064e-11       2.471607991566e-12      -9.332282913586e-15 
   78       3.094043805556e-10       7.328739452371e-14      -1.791426797564e-12       1.085415849355e-14       1.923397620161e-11       2.406346800519e-12      -9.253813786013e-15 
   79       3.121163164543e-10       7.540518067775e-14      -1.862590144869e-12       1.090425150565e-14       1.864147073411e-11       2.343553660940e-12      -9.176360833252e-15 
   80       3.148703463440e-10       7.753592497412e-14      -1.934745281257e-12       1.094895619078e-14       1.807334499895e-11       2.283160056953e-12      -9.098501005328e-15 
   81       3.176667250861e-10       7.967808447922e-14      -2.007856285209e-12       1.098829951136e-14       1.752845565553e-11       2.225056039753e-12      -9.018618374664e-15 
   82       3.205050775795e-10       8.183006877931e-14      -2.081886138941e-12       1.102231780206e-14       1.700524208215e-11       2.169088463343e-12      -8.934897341339e-15 
   83       3.233843679210e-10       8.399023982641e-14      -2.156796743938e-12       1.105105690625e-14       1.650170952649e-11       2.115059220285e-12      -8.845315838354e-15 
   84       3.263035316662e-10       8.615691853627e-14      -2.232548136388e-12       1.107456741423e-14       1.601591380846e-11       2.062775852898e-12      -8.748224246947e-15 
   85       3.292635605953e-10       8.832840617636e-14      -2.309095950035e-12       1.109288917180e-14       1.554754466200e-11       2.012216891651e-12      -8.644207295849e-15 
   86       3.322657086213e-10       9.050296625759e-14      -2.386393559246e-12       1.110606444181e-14       1.509657520535e-11       1.963390819140e-12      -8.534519802800e-15 
   87       3.353108400134e-10       9.267881805763e-14      -2.464392843760e-12       1.111414262736e-14       1.466277543037e-11       1.916285260689e-12      -8.420531412385e-15 
   88       3.383994097025e-10       9.485413658035e-14      -2.543044190775e-12       1.111718032594e-14       1.424570378237e-11       1.870866100356e-12      -8.303729645164e-15 
   89       3.415314435856e-10       9.702705251525e-14      -2.622296497033e-12       1.111524138358e-14       1.384469874004e-11       1.827076596936e-12      -8.185722946797e-15 
   90       3.447065188311e-10       9.919565219691e-14      -2.702097170905e-12       1.110839694900e-14       1.345887039523e-11       1.784836499965e-12      -8.068243737180e-15 
   91       3.479237441837e-10       1.013579775644e-13      -2.782392134474e-12       1.109672552767e-14       1.308709203283e-11       1.744041165723e-12      -7.953151459569e-15 
   92       3.511817402692e-10       1.035120261208e-13      -2.863125825625e-12       1.108031303602e-14       1.272799171064e-11       1.704560673240e-12      -7.842435629710e-15 
   93       3.544791868334e-10       1.056557968999e-13      -2.944242323258e-12       1.105924893927e-14       1.238027767525e-11       1.666271626085e-12      -7.737814254409e-15 
   94       3.578166013855e-10       1.077874363642e-13      -3.025688911994e-12       1.103361388292e-14       1.204378888416e-11       1.629159949088e-12      -7.639453375114e-15 
   95       3.611947928930e-10       1.099051144770e-13      -3.107413059954e-12       1.100349029249e-14       1.171858764944e-11       1.593231989771e-12      -7.547059685043e-15 
   96       3.646143069310e-10       1.120069812334e-13      -3.189361360662e-12       1.096896612438e-14       1.140463609347e-11       1.558482780647e-12      -7.460265528824e-15 
   97       3.680754137685e-10       1.140911672510e-13      -3.271479550551e-12       1.093013486625e-14       1.110179231130e-11       1.524895603892e-12      -7.378626397327e-15 
   98       3.715780964563e-10       1.161557843612e-13      -3.353712526460e-12       1.088709553741e-14       1.080980653302e-11       1.492441556024e-12      -7.301618422499e-15 
   99       3.751220389136e-10       1.181989261999e-13      -3.436004363141e-12       1.083995268916e-14       1.052831728616e-11       1.461079112581e-12      -7.228635872191e-15 
  100       3.787066140157e-10       1.202186687985e-13      -3.518298330759e-12       1.078881640519e-14       1.025684755799e-11       1.430753692794e-12      -7.158988644993e-15 
  101       3.823308716807e-10       1.222130711752e-13      -3.600536912397e-12       1.073380230196e-14       9.994800957954e-12       1.401397224264e-12      -7.091899765065e-15 
  102       3.859935269569e-10       1.241801759255e-13      -3.682661821552e-12       1.067503152904e-14       9.741457880008e-12       1.372927707639e-12      -7.026502876971e-15 
  103       3.896929481101e-10       1.261180098134e-13      -3.764614019645e-12       1.061263076951e-14       9.495971664988e-12       1.345248781293e-12      -6.961839740505e-15 
  104       3.934275902100e-10       1.280246255601e-13      -3.846333628968e-12       1.054672751940e-14       9.257560493831e-12       1.318271961891e-12      -6.897054535498e-15 
  105       3.971973882548e-10       1.298982323661e-13      -3.927759620468e-12       1.047743519895e-14       9.026120854934e-12       1.291987725359e-12      -6.832012065010e-15 
  106       4.010025309047e-10       1.317370842043e-13      -4.008830116218e-12       1.040486602143e-14       8.801690178635e-12       1.266403261049e-12      -6.766758780790e-15 
  107       4.048430248549e-10       1.335394412281e-13      -4.089482506363e-12       1.032913548358e-14       8.584256840186e-12       1.241520469401e-12      -6.701333092366e-15 
