# dimensionless total [l(l+1)/2pi] C_l's
# for l=2 to 3000, i.e. number of multipoles equal to 2999
#
# -> if you prefer output in CAMB/HealPix/LensPix units/order, set 'format' to 'camb' in input file
# -> if you don't want to see such a header, set 'headers' to 'no' in input file
# -> for CMB lensing (phi), these are C_l^phi-phi for the lensing potential.
#    Remember the conversion factors:
#    C_l^dd (deflection) = l(l+1) C_l^phi-phi
#    C_l^gg (shear/convergence) = 1/4 (l(l+1))^2 C_l^phi-phi
#
# 1:l     2:TT                     3:EE                     4:TE                     5:BB                     6:phiphi                 7:TPhi                   8:Ephi               
    2       2.863859288513e-10       7.933019367171e-15       5.637475774825e-13       4.868578008339e-15       8.399038735023e-09       4.687270563302e-10      -2.082439832144e-12 
    3       2.442024754828e-10       1.034750714112e-14       4.552732610317e-13       4.928025792278e-15       5.158756697563e-09       3.329648911234e-10      -1.675746538489e-12 
    4       2.251166354034e-10       9.974985944240e-15       3.902053300072e-13       4.306893524054e-15       3.590106182812e-09       2.523614687589e-10      -1.197214097401e-12 
    5       2.144197055344e-10       7.754305679664e-15       3.273804334415e-13       3.389864917509e-15       2.680902391515e-09       1.994733867071e-10      -7.675193621975e-13 
    6       2.073900110358e-10       5.135640164614e-15       2.649726509351e-13       2.470453509430e-15       2.094571002734e-09       1.624259328510e-10      -4.229220211592e-13 
    7       2.027952093257e-10       3.091616696556e-15       2.083809635174e-13       1.713049141128e-15       1.689756248091e-09       1.351862787903e-10      -1.729008205543e-13 
    8       1.997812508622e-10       1.896832945989e-15       1.612562250175e-13       1.175238289354e-15       1.395904185004e-09       1.144564652727e-10      -1.203262227220e-14 
    9       1.979121464318e-10       1.371221317830e-15       1.253428710412e-13       8.476928882552e-16       1.174565190884e-09       9.831796911780e-11       7.370142772306e-14 
   10       1.968645086717e-10       1.208988715874e-15       1.006337058105e-13       6.894232868952e-16       1.003215705747e-09       8.549939062688e-11       1.027104306345e-13 
   11       1.963316569111e-10       1.185343373324e-15       8.593375598864e-14       6.522760031763e-16       8.468408073446e-10       7.536394571992e-11       9.426573491502e-14 
   12       1.962359433843e-10       1.205266599432e-15       7.918641043055e-14       6.933314460953e-16       7.398912211858e-10       6.673217074459e-11       6.627396557896e-14 
   13       1.964373790890e-10       1.256122493917e-15       7.790004391842e-14       7.810229338524e-16       6.521033414115e-10       5.947401843531e-11       3.207519130864e-14 
   14       1.968593478134e-10       1.347853644542e-15       7.977559329567e-14       8.943706766529e-16       5.790601444868e-10       5.338486012634e-11       1.254903867964e-15 
   15       1.974716934861e-10       1.480606364184e-15       8.292168473388e-14       1.021478280473e-15       5.175840554131e-10       4.823956433148e-11      -2.099052564827e-14 
   16       1.981927887181e-10       1.643994041686e-15       8.605179633097e-14       1.156294676505e-15       4.653194317687e-10       4.380821115145e-11      -3.318569269156e-14 
   17       1.990750344397e-10       1.827942963564e-15       8.849978154282e-14       1.296132364174e-15       4.204856919636e-10       3.985829716038e-11      -3.658148603629e-14 
   18       2.000205717313e-10       2.029398211429e-15       9.003504646228e-14       1.440282448052e-15       3.815728516709e-10       3.642159415134e-11      -3.351066037774e-14 
   19       2.010465904182e-10       2.252190564735e-15       9.077996448795e-14       1.588507120040e-15       3.479630124170e-10       3.345323104090e-11      -2.650447283721e-14 
   20       2.021248700488e-10       2.501728345306e-15       9.099812256903e-14       1.740720389796e-15       3.183628506188e-10       3.078432468422e-11      -1.870451487923e-14 
   21       2.032660745712e-10       2.780182952850e-15       9.096103409660e-14       1.896795371370e-15       2.923073214409e-10       2.840556472177e-11      -1.187032884668e-14 
   22       2.044383934789e-10       3.087935476347e-15       9.092995925500e-14       2.056670301816e-15       2.691721775268e-10       2.631861030989e-11      -7.272358372159e-15 
   23       2.056604485089e-10       3.423751171576e-15       9.093986035696e-14       2.220277783168e-15       2.486390282271e-10       2.448530560142e-11      -5.104040533732e-15 
   24       2.069256876955e-10       3.785586111681e-15       9.089603312365e-14       2.387571942780e-15       2.302330945655e-10       2.282891101707e-11      -5.045625170861e-15 
   25       2.082306729796e-10       4.173269386927e-15       9.056923029998e-14       2.558344408136e-15       2.137379140735e-10       2.131082333488e-11      -6.564605252341e-15 
   26       2.095472762565e-10       4.587103360217e-15       8.964753510411e-14       2.732347902629e-15       1.988550921878e-10       1.989661396343e-11      -8.903767028995e-15 
   27       2.108861263836e-10       5.027535616559e-15       8.787516897666e-14       2.909344843348e-15       1.854064694768e-10       1.860380745822e-11      -1.126265935626e-14 
   28       2.122509154107e-10       5.495052875012e-15       8.501098681333e-14       3.089109368688e-15       1.731605628079e-10       1.745367739587e-11      -1.284884778202e-14 
   29       2.136550129181e-10       5.990433983188e-15       8.094192152604e-14       3.271417234624e-15       1.620546044646e-10       1.643384299946e-11      -1.353270345943e-14 
   30       2.150905340123e-10       6.514546312698e-15       7.559441604210e-14       3.456055076277e-15       1.519688259822e-10       1.550649643484e-11      -1.342681186563e-14 
   31       2.165304375952e-10       7.068306815771e-15       6.891338702237e-14       3.642815711830e-15       1.426969950970e-10       1.462657442023e-11      -1.270666107035e-14 
   32       2.179859991656e-10       7.652843319823e-15       6.091725206326e-14       3.831466729618e-15       1.341913312552e-10       1.379614690560e-11      -1.158713935091e-14 
   33       2.194660634864e-10       8.269399565648e-15       5.166651257191e-14       4.021770791816e-15       1.263920279973e-10       1.302906454329e-11      -1.034713713327e-14 
   34       2.209656139314e-10       8.919169349057e-15       4.123369971269e-14       4.213495326848e-15       1.191902816638e-10       1.233377308831e-11      -9.278694735278e-15 
   35       2.224861139344e-10       9.602849431293e-15       2.964090509209e-14       4.406417413333e-15       1.125492110106e-10       1.170386323689e-11      -8.469646209006e-15 
   36       2.240189475691e-10       1.032092177197e-14       1.690173289269e-14       4.600321065273e-15       1.064153871061e-10       1.112318578205e-11      -7.946576334168e-15 
   37       2.255484030961e-10       1.107381560810e-14       3.022176909324e-15       4.794985400894e-15       1.007088271255e-10       1.057347810668e-11      -7.716956557759e-15 
   38       2.270864948590e-10       1.186208753975e-14      -1.205399118102e-14       4.990147403847e-15       9.541476637077e-11       1.005429580468e-11      -7.719327232741e-15 
   39       2.286475460375e-10       1.268629212418e-14      -2.840957273728e-14       5.185526357482e-15       9.051642921912e-11       9.569079180784e-12      -7.854302784807e-15 
   40       2.302376677812e-10       1.354692900332e-14      -4.614061343479e-14       5.380833028155e-15       8.596711903342e-11       9.119594168499e-12      -7.995590386719e-15 
   41       2.318563241620e-10       1.444445517115e-14      -6.534008271144e-14       5.575780313469e-15       8.170648564347e-11       8.705687495911e-12      -8.021819974402e-15 
   42       2.335038956151e-10       1.537933534125e-14      -8.604010485854e-14       5.770120826533e-15       7.772197105092e-11       8.324876191841e-12      -7.928829397591e-15 
   43       2.351749981537e-10       1.635200184038e-14      -1.082526148507e-13       5.963620517021e-15       7.400297331686e-11       7.972330473331e-12      -7.750897946313e-15 
   44       2.368554401521e-10       1.736283760638e-14      -1.319848793128e-13       6.156048626596e-15       7.052240715668e-11       7.640756174779e-12      -7.530768996856e-15 
   45       2.385293386351e-10       1.841216344918e-14      -1.572379962771e-13       6.347167503133e-15       6.724637441978e-11       7.322540535520e-12      -7.312542256158e-15 
   46       2.402048115411e-10       1.950020133851e-14      -1.840023046373e-13       6.536698034484e-15       6.416971492387e-11       7.017377350934e-12      -7.116608189857e-15 
   47       2.418946624890e-10       2.062709577610e-14      -2.122602810587e-13       6.724344153337e-15       6.128885209889e-11       6.726616241528e-12      -6.958092221090e-15 
   48       2.436088602964e-10       2.179291994622e-14      -2.419874747114e-13       6.909801861794e-15       5.859107127597e-11       6.451091025691e-12      -6.853896673456e-15 
   49       2.453542264044e-10       2.299767256391e-14      -2.731522428950e-13       7.092758795768e-15       5.605384014849e-11       6.191074211353e-12      -6.822774668783e-15 
   50       2.471344665885e-10       2.424127417697e-14      -3.057254121751e-13       7.272912996948e-15       5.365159406211e-11       5.946362861602e-12      -6.878972334968e-15 
   51       2.489510014198e-10       2.552356220021e-14      -3.397129667114e-13       7.450036246318e-15       5.137983970831e-11       5.716669247880e-12      -7.010949493247e-15 
   52       2.508018209159e-10       2.684428908539e-14      -3.751317758173e-13       7.623927168842e-15       4.923641948120e-11       5.501257571229e-12      -7.197010678829e-15 
   53       2.526808706116e-10       2.820311964780e-14      -4.120006418421e-13       7.794393985594e-15       4.721429801763e-11       5.298783463102e-12      -7.411008658993e-15 
   54       2.545777551843e-10       2.959962788882e-14      -4.503405028778e-13       7.961254982044e-15       4.530123394430e-11       5.107254659326e-12      -7.622115663084e-15 
   55       2.564819595881e-10       3.103334897215e-14      -4.901693604867e-13       8.124338586352e-15       4.348351239921e-11       4.924577663153e-12      -7.802284566757e-15 
   56       2.583974193896e-10       3.250395755189e-14      -5.314851229263e-13       8.283482554228e-15       4.175898041806e-11       4.750446856027e-12      -7.951327062322e-15 
   57       2.603310508933e-10       3.401112817954e-14      -5.742788548714e-13       8.438535401814e-15       4.012667485699e-11       4.584855799844e-12      -8.077664735661e-15 
   58       2.622884330109e-10       3.555448302548e-14      -6.185396762235e-13       8.589357221155e-15       3.858287899570e-11       4.427536228434e-12      -8.191254239552e-15 
   59       2.642736868938e-10       3.713359085050e-14      -6.642547593004e-13       8.735820133295e-15       3.712095249652e-11       4.277941552269e-12      -8.303658132273e-15 
   60       2.662893555653e-10       3.874796597716e-14      -7.114093260240e-13       8.877808741362e-15       3.573116136354e-11       4.135230363170e-12      -8.428115716198e-15 
   61       2.683370549085e-10       4.039707014940e-14      -7.599879464345e-13       9.015216524027e-15       3.440338000446e-11       3.998517152517e-12      -8.575914271512e-15 
   62       2.704198696868e-10       4.208032092581e-14      -8.099787811839e-13       9.147933044854e-15       3.313629083634e-11       3.867727545249e-12      -8.744390691962e-15 
   63       2.725402841893e-10       4.379708335371e-14      -8.613702906607e-13       9.275854662899e-15       3.192995728707e-11       3.742906634766e-12      -8.926350135295e-15 
   64       2.746993643388e-10       4.554666632887e-14      -9.141500554119e-13       9.398888656865e-15       3.078305655940e-11       3.623960850888e-12      -9.113482353328e-15 
   65       2.768966617988e-10       4.732832165860e-14      -9.683048146221e-13       9.516953549382e-15       2.969280071974e-11       3.510649943047e-12      -9.296315144886e-15 
   66       2.791301180805e-10       4.914124312481e-14      -1.023820504592e-12       9.629979431286e-15       2.865485778685e-11       3.402578963483e-12      -9.464167808737e-15 
   67       2.813959686497e-10       5.098456554710e-14      -1.080682297218e-12       9.737908285902e-15       2.766327282061e-11       3.299190250428e-12      -9.605104596530e-15 
   68       2.836904702224e-10       5.285734305134e-14      -1.138873660081e-12       9.840688305603e-15       2.671205740710e-11       3.199916695151e-12      -9.708644175434e-15 
   69       2.860157034239e-10       5.475848085637e-14      -1.198373229554e-12       9.938254779350e-15       2.580050850018e-11       3.104695525844e-12      -9.774629583051e-15 
   70       2.883747790372e-10       5.668678791887e-14      -1.259157370321e-12       1.003054589722e-14       2.492883050947e-11       3.013544706466e-12      -9.806080197554e-15 
   71       2.907700704645e-10       5.864099506247e-14      -1.321201110915e-12       1.011750858305e-14       2.409652667016e-11       2.926407042026e-12      -9.806618261013e-15 
   72       2.932031644631e-10       6.061975350899e-14      -1.384478157177e-12       1.019909866507e-14       2.330236280171e-11       2.843146286689e-12      -9.780492818508e-15 
   73       2.956748118812e-10       6.262163340970e-14      -1.448960905712e-12       1.027528104652e-14       2.254433106663e-11       2.763543251863e-12      -9.732603657251e-15 
   74       2.981848783934e-10       6.464512237656e-14      -1.514620457344e-12       1.034602987629e-14       2.181961372915e-11       2.687291914306e-12      -9.668525245704e-15 
   75       3.007322952369e-10       6.668862401347e-14      -1.581426630574e-12       1.041132871957e-14       2.112454691394e-11       2.613995524220e-12      -9.594530672698e-15 
   76       3.033159115845e-10       6.875053011265e-14      -1.649348364127e-12       1.047116821018e-14       2.045552958079e-11       2.543266670524e-12      -9.516348687980e-15 
   77       3.059373400119e-10       7.082945568981e-14      -1.718354979595e-12       1.052553813633e-14       1.981202192386e-11       2.475057146200e-12      -9.435120230148e-15 
   78       3.085985428230e-10       7.292404433945e-14      -1.788415174565e-12       1.057443421499e-14       1.919403044221e-11       2.409381444153e-12      -9.350744618913e-15 
   79       3.113009461665e-10       7.503289841314e-14      -1.859496675032e-12       1.061786059914e-14       1.860119464410e-11       2.346216404704e-12      -9.263079034067e-15 
   80       3.140454092610e-10       7.715457906134e-14      -1.931566256842e-12       1.065582999681e-14       1.803277018812e-11       2.285499455413e-12      -9.171936475826e-15 
   81       3.168321936191e-10       7.928760627518e-14      -2.004589767119e-12       1.068836379002e-14       1.748761202436e-11       2.227126850903e-12      -9.077083725161e-15 
   82       3.196609322721e-10       8.143045892831e-14      -2.078532145708e-12       1.071549215383e-14       1.696415753549e-11       2.170951912684e-12      -8.978239304139e-15 
   83       3.225305989949e-10       8.358157481866e-14      -2.153357446600e-12       1.073725417529e-14       1.646040967795e-11       2.116783268978e-12      -8.875071436259e-15 
   84       3.254401385858e-10       8.573934095502e-14      -2.229027694476e-12       1.075369454087e-14       1.597442205484e-11       2.064432807626e-12      -8.767407473310e-15 
   85       3.283905451738e-10       8.790206247491e-14      -2.305499189553e-12       1.076485270717e-14       1.550588345834e-11       2.013872524328e-12      -8.655906534615e-15 
   86       3.313830736278e-10       9.006798862661e-14      -2.382725626609e-12       1.077077214476e-14       1.505476632231e-11       1.965100570220e-12      -8.541495155968e-15 
   87       3.344185897584e-10       9.223532194600e-14      -2.460659207245e-12       1.077150367055e-14       1.462083984723e-11       1.918092939639e-12      -8.425167229639e-15 
   88       3.374975506530e-10       9.440221813437e-14      -2.539250641742e-12       1.076710550910e-14       1.420366157716e-11       1.872802545468e-12      -8.307985518766e-15 
   89       3.406199850105e-10       9.656678593629e-14      -2.618449150917e-12       1.075764335393e-14       1.380256897670e-11       1.829158294465e-12      -8.191083171760e-15 
   90       3.437854734760e-10       9.872708701748e-14      -2.698202467984e-12       1.074319042888e-14       1.341667100796e-11       1.787064162607e-12      -8.075665236691e-15 
   91       3.469931289754e-10       1.008811358427e-13      -2.778456840404e-12       1.072382754937e-14       1.304483970756e-11       1.746398270426e-12      -7.963010175692e-15 
   92       3.502415770506e-10       1.030268995534e-13      -2.859157031745e-12       1.069964318377e-14       1.268570176353e-11       1.707011958346e-12      -7.854471379353e-15 
   93       3.535295031024e-10       1.051623502641e-13      -2.940247394733e-12       1.067072884207e-14       1.233796412253e-11       1.668765761690e-12      -7.751208444691e-15 
   94       3.568574309857e-10       1.072856312125e-13      -3.021675270989e-12       1.063716431539e-14       1.200146512497e-11       1.631645533340e-12      -7.653331487995e-15 
   95       3.602261768008e-10       1.093949154886e-13      -3.103388108423e-12       1.059903031958e-14       1.167626662293e-11       1.595662157589e-12      -7.560630337712e-15 
   96       3.636362940955e-10       1.114883564328e-13      -3.185332451938e-12       1.055641296718e-14       1.136233024974e-11       1.560815794088e-12      -7.472831138182e-15 
   97       3.670880619816e-10       1.135640882326e-13      -3.267453959992e-12       1.050940376466e-14       1.105951358212e-11       1.527095459693e-12      -7.389594154537e-15 
   98       3.705814732517e-10       1.156202265209e-13      -3.349697421160e-12       1.045809960956e-14       1.076756630232e-11       1.494478610327e-12      -7.310511577611e-15 
   99       3.741162224955e-10       1.176548689726e-13      -3.432006770689e-12       1.040260278768e-14       1.048612636029e-11       1.462930722825e-12      -7.235105328845e-15 
  100       3.776916942167e-10       1.196660959025e-13      -3.514325107064e-12       1.034302097029e-14       1.021471613577e-11       1.432404876793e-12      -7.162824865188e-15 
  101       3.813069509495e-10       1.216519708624e-13      -3.596594708568e-12       1.027946721124e-14       9.952738600499e-12       1.402841336462e-12      -7.093044984009e-15 
  102       3.849607213751e-10       1.236105412386e-13      -3.678757049840e-12       1.021205994419e-14       9.699473480322e-12       1.374167132538e-12      -7.025063627994e-15 
  103       3.886513884385e-10       1.255398388493e-13      -3.760752818439e-12       1.014092297980e-14       9.454073417339e-12       1.346295644058e-12      -6.958099690057e-15 
  104       3.923774207285e-10       1.274379202080e-13      -3.842521926340e-12       1.006618119117e-14       9.215755932897e-12       1.319146899776e-12      -6.891449893292e-15 
  105       3.961387585788e-10       1.293029922215e-13      -3.924003510531e-12       9.987946912709e-15       8.984417115469e-12       1.292712506237e-12      -6.824988294100e-15 
  106       3.999355939267e-10       1.311333046644e-13      -4.005135963373e-12       9.906331690176e-15       8.760094064127e-12       1.266998751830e-12      -6.758730476489e-15 
  107       4.037679368422e-10       1.329271130505e-13      -4.085856953973e-12       9.821450378669e-15       8.542774824720e-12       1.242006482307e-12      -6.692680060875e-15 
