# dimensionless total [l(l+1)/2pi] C_l's
# for l=2 to 3000, i.e. number of multipoles equal to 2999
#
# -> if you prefer output in CAMB/HealPix/LensPix units/order, set 'format' to 'camb' in input file
# -> if you don't want to see such a header, set 'headers' to 'no' in input file
# -> for CMB lensing (phi), these are C_l^phi-phi for the lensing potential.
#    Remember the conversion factors:
#    C_l^dd (deflection) = l(l+1) C_l^phi-phi
#    C_l^gg (shear/convergence) = 1/4 (l(l+1))^2 C_l^phi-phi
#
# 1:l     2:TT                     3:EE                     4:TE                     5:BB                     6:phiphi                 7:TPhi                   8:Ephi               
    2       2.867175534931e-10       7.832488817499e-15       5.600623549492e-13       4.820519781744e-15       8.259506886989e-09       4.777387734968e-10      -2.071093464922e-12 
    3       2.452646776335e-10       1.012404126970e-14       4.541097278896e-13       4.846633472775e-15       5.138496194732e-09       3.389986445596e-10      -1.656448486184e-12 
    4       2.260293125208e-10       9.658966485089e-15       3.885001320605e-13       4.207077784884e-15       3.579671013268e-09       2.566815251614e-10      -1.174670141089e-12 
    5       2.152048449493e-10       7.426389982959e-15       3.251848998240e-13       3.288867196047e-15       2.672363422416e-09       2.027033653453e-10      -7.450908031832e-13 
    6       2.080948431368e-10       4.868143818742e-15       2.624966905725e-13       2.381578245035e-15       2.085795380839e-09       1.648881807202e-10      -4.032475347845e-13 
    7       2.034532340655e-10       2.913902538823e-15       2.059387179441e-13       1.643347521669e-15       1.681094390625e-09       1.372059855768e-10      -1.578510217377e-13 
    8       2.004259244691e-10       1.797599904620e-15       1.590939679522e-13       1.126207694557e-15       1.388911962929e-09       1.162082142053e-10      -2.420247957884e-15 
    9       1.985341753643e-10       1.320393878478e-15       1.236106721373e-13       8.171204664922e-16       1.169909520212e-09       9.979638191157e-11       7.807528154222e-14 
   10       1.974319637850e-10       1.179642279436e-15       9.945718097389e-14       6.732515270022e-16       1.000388707544e-09       8.672196074529e-11       1.028310801505e-13 
   11       1.968905843352e-10       1.163407630109e-15       8.531234935093e-14       6.462339169651e-16       8.428967208686e-10       7.646423214166e-11       9.163912499940e-14 
   12       1.968095019143e-10       1.187713809689e-15       7.896707278606e-14       6.936246164800e-16       7.364826051188e-10       6.771306205476e-11       6.223036561744e-14 
   13       1.970104392595e-10       1.243862535262e-15       7.786202138018e-14       7.850105276280e-16       6.491292058011e-10       6.044249962970e-11       2.813928503977e-14 
   14       1.973987585853e-10       1.341185706788e-15       7.973612406637e-14       9.002100948549e-16       5.764448610167e-10       5.413741436495e-11      -1.837801632139e-15 
   15       1.979847967515e-10       1.477964460592e-15       8.283309230137e-14       1.028273777242e-15       5.152649762396e-10       4.883839246584e-11      -2.274753120856e-14 
   16       1.987645458077e-10       1.643611603431e-15       8.586650474571e-14       1.163635161758e-15       4.632482913641e-10       4.435660478218e-11      -3.353108668021e-14 
   17       1.995925596664e-10       1.829231861311e-15       8.818389892583e-14       1.303909591436e-15       4.186266207607e-10       4.049224182805e-11      -3.554331045383e-14 
   18       2.005178320508e-10       2.033116280554e-15       8.965181705039e-14       1.448565209901e-15       3.798961626701e-10       3.701191956581e-11      -3.167231832541e-14 
   19       2.015708200618e-10       2.259287937906e-15       9.040818918068e-14       1.597368588004e-15       3.464434976048e-10       3.391155148685e-11      -2.449217851034e-14 
   20       2.026527701918e-10       2.512868094453e-15       9.069595576417e-14       1.750193793482e-15       3.169799463593e-10       3.119461435067e-11      -1.690492547717e-14 
   21       2.037875241416e-10       2.795446441368e-15       9.078325027091e-14       1.906928529423e-15       2.910430353362e-10       2.882781775454e-11      -1.050914530447e-14 
   22       2.049786787760e-10       3.106763944546e-15       9.092177902403e-14       2.067534503695e-15       2.680124480184e-10       2.672324913360e-11      -6.425668432944e-15 
   23       2.062203339058e-10       3.445686484929e-15       9.108845907110e-14       2.231906010134e-15       2.475715186793e-10       2.483471107075e-11      -4.802600083022e-15 
   24       2.074685009842e-10       3.810530016018e-15       9.112079128866e-14       2.399945141439e-15       2.292477043318e-10       2.310921323001e-11      -5.281613450668e-15 
   25       2.087462990753e-10       4.201209590059e-15       9.080410351388e-14       2.571469357100e-15       2.128258277970e-10       2.154241092528e-11      -7.177611818485e-15 
   26       2.100672491318e-10       4.618052444176e-15       8.986327472547e-14       2.746276812120e-15       1.980091442472e-10       2.013006603956e-11      -9.568794777427e-15 
   27       2.114268560614e-10       5.061599755294e-15       8.802534357692e-14       2.924117088563e-15       1.846200132767e-10       1.886096765881e-11      -1.171142482712e-14 
   28       2.127980671653e-10       5.532455347970e-15       8.502268609599e-14       3.104736604161e-15       1.724275830292e-10       1.771191238810e-11      -1.295365450024e-14 
   29       2.141947162050e-10       6.031439730112e-15       8.076567801653e-14       3.287919290338e-15       1.613695248160e-10       1.667045202859e-11      -1.326814736805e-14 
   30       2.156210521038e-10       6.559440795485e-15       7.522838439054e-14       3.473474474560e-15       1.513270055795e-10       1.571530559145e-11      -1.287816400607e-14 
   31       2.170616637647e-10       7.117390352777e-15       6.840339290884e-14       3.661215689753e-15       1.420951047456e-10       1.481803182387e-11      -1.206307320397e-14 
   32       2.185243570996e-10       7.706400450401e-15       6.030835347526e-14       3.850902004814e-15       1.336262078078e-10       1.397955453911e-11      -1.101086334147e-14 
   33       2.200083804198e-10       8.327683000607e-15       5.098458204871e-14       4.042274886804e-15       1.258605533126e-10       1.320589876026e-11      -9.918426929776e-15 
   34       2.215006116731e-10       8.982402914957e-15       4.048250155519e-14       4.235072455883e-15       1.186896031418e-10       1.249812561058e-11      -8.991207105443e-15 
   35       2.230099265137e-10       9.671277272442e-15       2.881127769516e-14       4.429027431465e-15       1.120766703439e-10       1.185218332422e-11      -8.296772415638e-15 
   36       2.245417032356e-10       1.039482784274e-14       1.597247629369e-14       4.623867880276e-15       1.059686822954e-10       1.125802184367e-11      -7.860947866741e-15 
   37       2.260924453574e-10       1.115351920077e-14       1.960567993743e-15       4.819326179552e-15       1.002861270987e-10       1.070293664010e-11      -7.691257979107e-15 
   38       2.276678716844e-10       1.194789650440e-14      -1.328146367194e-14       5.015169154994e-15       9.501431889039e-11       1.018488654317e-11      -7.726751028255e-15 
   39       2.292685973575e-10       1.277848418290e-14      -2.983331162432e-14       5.211178116601e-15       9.013653379930e-11       9.702966730103e-12      -7.869387061380e-15 
   40       2.308838292425e-10       1.364574374920e-14      -4.778663665895e-14       5.407141284140e-15       8.560624930130e-11       9.253530956222e-12      -7.995256219236e-15 
   41       2.324984874371e-10       1.455009677633e-14      -6.722842335334e-14       5.602839714801e-15       8.136335168517e-11       8.831572641703e-12      -7.987015563713e-15 
   42       2.341201037560e-10       1.549201278341e-14      -8.818233326187e-14       5.797998661810e-15       7.739535231866e-11       8.435995365461e-12      -7.848035766865e-15 
   43       2.357587571011e-10       1.647194298509e-14      -1.106497992456e-13       5.992321021927e-15       7.369172441644e-11       8.065647434434e-12      -7.622516656634e-15 
   44       2.374190018689e-10       1.749029340290e-14      -1.346256487696e-13       6.185499819796e-15       7.022553377438e-11       7.717715043805e-12      -7.365152766019e-15 
   45       2.391016645754e-10       1.854740006306e-14      -1.601008673710e-13       6.377228621596e-15       6.696305921032e-11       7.388751510213e-12      -7.131024064678e-15 
   46       2.408112292018e-10       1.964345115881e-14      -1.870725691060e-13       6.567237933494e-15       6.389916152936e-11       7.078443551363e-12      -6.940179615172e-15 
   47       2.425496816971e-10       2.077853771154e-14      -2.155365052972e-13       6.755268641859e-15       6.103026670786e-11       6.786746009839e-12      -6.803537428603e-15 
   48       2.443139030194e-10       2.195267055730e-14      -2.454841493288e-13       6.941061952431e-15       5.834369801768e-11       6.512754455419e-12      -6.732715676833e-15 
   49       2.460952307303e-10       2.316577675436e-14      -2.769025779143e-13       7.124359412196e-15       5.581699916932e-11       6.254639824274e-12      -6.740044178171e-15 
   50       2.478838730228e-10       2.441772153449e-14      -3.097780964909e-13       7.304906522938e-15       5.342469591201e-11       6.010226207662e-12      -6.833645707754e-15 
   51       2.496845803928e-10       2.570838951588e-14      -3.441085509859e-13       7.482464687495e-15       5.116231485407e-11       5.779060747500e-12      -7.001079301219e-15 
   52       2.515044700546e-10       2.703761932476e-14      -3.798941527047e-13       7.656802543982e-15       4.902771429129e-11       5.560792610382e-12      -7.221276964425e-15 
   53       2.533483402293e-10       2.840517764469e-14      -4.171340823868e-13       7.827692843884e-15       4.701389651243e-11       5.354544681789e-12      -7.468870512587e-15 
   54       2.552184600888e-10       2.981075682612e-14      -4.558265476687e-13       7.994912642940e-15       4.510868098746e-11       5.158878471141e-12      -7.713971047718e-15 
   55       2.571156606683e-10       3.125399716483e-14      -4.959698371368e-13       8.158253594408e-15       4.329841923683e-11       4.972228058327e-12      -7.929235230923e-15 
   56       2.590434061774e-10       3.273456569442e-14      -5.375656574830e-13       8.317555385923e-15       4.158096882485e-11       4.794408571633e-12      -8.113624939286e-15 
   57       2.610043661608e-10       3.425209278065e-14      -5.806167260197e-13       8.472680943431e-15       3.995536994826e-11       4.625420976557e-12      -8.274163755242e-15 
   58       2.629990472431e-10       3.580614776930e-14      -6.251259409169e-13       8.623507628347e-15       3.841792047842e-11       4.464999412109e-12      -8.419229303920e-15 
   59       2.650256337600e-10       3.739623755697e-14      -6.710964774926e-13       8.769927822042e-15       3.696200661758e-11       4.312594370211e-12      -8.558616631679e-15 
   60       2.670798283897e-10       3.902180516176e-14      -7.185318845032e-13       8.911849510332e-15       3.557793355519e-11       4.167355875082e-12      -8.703601584642e-15 
   61       2.691570643168e-10       4.068224171966e-14      -7.674328293786e-13       9.049187039460e-15       3.425561653450e-11       4.028387142395e-12      -8.863769850182e-15 
   62       2.712600825038e-10       4.237692885353e-14      -8.177862623823e-13       9.181829637073e-15       3.299374301139e-11       3.895610143431e-12      -9.036528973574e-15 
   63       2.733927801569e-10       4.410520332129e-14      -8.695739800305e-13       9.309666830472e-15       3.179237589635e-11       3.769065361814e-12      -9.215343953596e-15 
   64       2.755579068200e-10       4.586634344609e-14      -9.227757516869e-13       9.432597918857e-15       3.065019758896e-11       3.648650382535e-12      -9.392725378535e-15 
   65       2.777569802527e-10       4.765956811305e-14      -9.773693095262e-13       9.550532245963e-15       2.956443139290e-11       3.534111653472e-12      -9.560190181653e-15 
   66       2.799902023081e-10       4.948403576591e-14      -1.033330338498e-12       9.663389472700e-15       2.853076293085e-11       3.425036246893e-12      -9.708222396654e-15 
   67       2.822563748116e-10       5.133884340384e-14      -1.090632466292e-12       9.771099849792e-15       2.754326155944e-11       3.320843620976e-12      -9.826233913157e-15 
   68       2.845540932801e-10       5.322301254994e-14      -1.149249109859e-12       9.873601283359e-15       2.659596340980e-11       3.220941807532e-12      -9.904998918975e-15 
   69       2.868857969927e-10       5.513544609821e-14      -1.209159471891e-12       9.970829231790e-15       2.568816865005e-11       3.125251140685e-12      -9.944617760002e-15 
   70       2.892543922214e-10       5.707496088012e-14      -1.270343746939e-12       1.006272524209e-14       2.482008134574e-11       3.033772337022e-12      -9.948103681692e-15 
   71       2.916619964827e-10       5.904029860659e-14      -1.332781409137e-12       1.014924016298e-14       2.399120736390e-11       2.946427498034e-12      -9.919075511060e-15 
   72       2.941098870972e-10       6.103012453149e-14      -1.396451249648e-12       1.023033433554e-14       2.320031828476e-11       2.863056076900e-12      -9.861781677797e-15 
   73       2.965984497488e-10       6.304302611514e-14      -1.461331414111e-12       1.030597778381e-14       2.244541531352e-11       2.783410845275e-12      -9.781124235392e-15 
   74       2.991271270449e-10       6.507751168784e-14      -1.527399440084e-12       1.037615040539e-14       2.172369319212e-11       2.707153860071e-12      -9.682682882240e-15 
   75       3.016943670754e-10       6.713200911338e-14      -1.594632294496e-12       1.044084216211e-14       2.103150411099e-11       2.633852430249e-12      -9.572738982762e-15 
   76       3.042985537531e-10       6.920492646269e-14      -1.663004685394e-12       1.050004949753e-14       2.036526267397e-11       2.563086126607e-12      -9.457258223872e-15 
   77       3.069411074054e-10       7.129484976254e-14      -1.732483559011e-12       1.055376341421e-14       1.972443108605e-11       2.494799255053e-12      -9.338571307489e-15 
   78       3.096238587603e-10       7.340037904666e-14      -1.803032662584e-12       1.060197955849e-14       1.910901529311e-11       2.429005629624e-12      -9.218128795623e-15 
   79       3.123480865241e-10       7.552006948085e-14      -1.874614183050e-12       1.064470191211e-14       1.851865570177e-11       2.365681503805e-12      -9.097491401149e-15 
   80       3.151144860726e-10       7.765243129801e-14      -1.947188749106e-12       1.068194290540e-14       1.795261038829e-11       2.304763814352e-12      -8.978332654894e-15 
   81       3.179231381433e-10       7.979592973324e-14      -2.020715433268e-12       1.071372353056e-14       1.740973830731e-11       2.246148425093e-12      -8.862441572730e-15 
   82       3.207734775272e-10       8.194898495895e-14      -2.095151753931e-12       1.074007345492e-14       1.688848250072e-11       2.189688370750e-12      -8.751725322664e-15 
   83       3.236642617602e-10       8.410997201989e-14      -2.170453677428e-12       1.076103113413e-14       1.638685330646e-11       2.135192100750e-12      -8.648211891925e-15 
   84       3.265942554795e-10       8.627722237276e-14      -2.246576332045e-12       1.077664083877e-14       1.590291158023e-11       2.082471904469e-12      -8.553495788895e-15 
   85       3.295644824241e-10       8.844902894028e-14      -2.323476281557e-12       1.078694291942e-14       1.543634718369e-11       2.031502257727e-12      -8.466963726100e-15 
   86       3.325762911019e-10       9.062364177982e-14      -2.401109634125e-12       1.079198212787e-14       1.498713260705e-11       1.982284628958e-12      -8.387278315402e-15 
   87       3.356306533230e-10       9.279926651607e-14      -2.479431377667e-12       1.079181062077e-14       1.455503795850e-11       1.934798732397e-12      -8.312902285374e-15 
   88       3.387281449198e-10       9.497406430305e-14      -2.558395393889e-12       1.078648802103e-14       1.413962257663e-11       1.889001615281e-12      -8.242091787635e-15 
   89       3.418689264664e-10       9.714615178615e-14      -2.637954472307e-12       1.077608147916e-14       1.374022664282e-11       1.844826745039e-12      -8.172889703179e-15 
   90       3.450527239986e-10       9.931360106421e-14      -2.718060324272e-12       1.076066573467e-14       1.335596279364e-11       1.802183096503e-12      -8.103118948707e-15 
   91       3.482788097332e-10       1.014744396516e-13      -2.798663596996e-12       1.074032317741e-14       1.298570773322e-11       1.760954239092e-12      -8.030375782960e-15 
   92       3.515459827885e-10       1.036266504401e-13      -2.879713887578e-12       1.071514390897e-14       1.262809384567e-11       1.720997424023e-12      -7.952023113045e-15 
   93       3.548530819378e-10       1.057682167500e-13      -2.961159634271e-12       1.068522108793e-14       1.228183344850e-11       1.682179244351e-12      -7.865878518392e-15 
   94       3.582006539656e-10       1.078972653158e-13      -3.042947741130e-12       1.065063603165e-14       1.194676555675e-11       1.644490732817e-12      -7.772411231260e-15 
   95       3.615895017529e-10       1.100119448353e-13      -3.125023922578e-12       1.061147097683e-14       1.162295177696e-11       1.607947967595e-12      -7.672864743820e-15 
   96       3.650201627835e-10       1.121103833702e-13      -3.207332833308e-12       1.056781359265e-14       1.131035392347e-11       1.572556636596e-12      -7.568594336657e-15 
   97       3.684928971672e-10       1.141906889270e-13      -3.289818080627e-12       1.051975697737e-14       1.100883019694e-11       1.538311626696e-12      -7.461069921370e-15 
   98       3.720076756622e-10       1.162509500382e-13      -3.372422236790e-12       1.046739965496e-14       1.071813136283e-11       1.505196612960e-12      -7.351878883184e-15 
   99       3.755641676985e-10       1.182892363430e-13      -3.455086851344e-12       1.041084557178e-14       1.043789692996e-11       1.473183647875e-12      -7.242728923551e-15 
  100       3.791617294006e-10       1.203035991682e-13      -3.537752463466e-12       1.035020409315e-14       1.016765132893e-11       1.442232750574e-12      -7.135450902758e-15 
  101       3.827993916103e-10       1.222920721097e-13      -3.620358614307e-12       1.028559000004e-14       9.906800090692e-12       1.412291496066e-12      -7.032001682534e-15 
  102       3.864758479097e-10       1.242526716130e-13      -3.702843859327e-12       1.021712348565e-14       9.654626025035e-12       1.383294604463e-12      -6.934466968653e-15 
  103       3.901894426442e-10       1.261833975541e-13      -3.785145780638e-12       1.014493015207e-14       9.410285399080e-12       1.355163530208e-12      -6.845064153541e-15 
  104       3.939386063219e-10       1.280822779840e-13      -3.867201522509e-12       1.006913658796e-14       9.172999063059e-12       1.327824441919e-12      -6.765616476953e-15 
  105       3.977232545940e-10       1.299475089932e-13      -3.948949453681e-12       9.989856428367e-15       8.942663462506e-12       1.301265812787e-12      -6.695888487101e-15 
  106       4.015435568076e-10       1.317773349116e-13      -4.030327753655e-12       9.907202396761e-15       8.719315424788e-12       1.275487880222e-12      -6.635029977250e-15 
  107       4.053994985288e-10       1.335700068860e-13      -4.111273927454e-12       9.821290504504e-15       8.502942923481e-12       1.250484743787e-12      -6.582081657128e-15 
