# dimensionless total lensed [l(l+1)/2pi] C_l's
# for l=2 to 2500, i.e. number of multipoles equal to 2499
#
# -> if you prefer output in CAMB/HealPix/LensPix units/order, set 'format' to 'camb' in input file
# -> if you don't want to see such a header, set 'headers' to 'no' in input file
# -> for CMB lensing (phi), these are C_l^phi-phi for the lensing potential.
#    Remember the conversion factors:
#    C_l^dd (deflection) = l(l+1) C_l^phi-phi
#    C_l^gg (shear/convergence) = 1/4 (l(l+1))^2 C_l^phi-phi
#
# 1:l     2:TT                     3:EE                     4:TE                     5:BB                     6:phiphi                 7:TPhi                   8:Ephi               
    2       2.857114424968e-10       7.737430074908e-15       5.610485257035e-13       4.752330077106e-15       8.436332495165e-09       4.650963504140e-10      -2.059105752461e-12 
    3       2.437096171683e-10       1.003102235878e-14       4.521822505306e-13       4.790922350819e-15       5.179262605527e-09       3.305028868871e-10      -1.650907519375e-12 
    4       2.247965535186e-10       9.612217114725e-15       3.866733552588e-13       4.171158006771e-15       3.603924255736e-09       2.506462578368e-10      -1.174318737381e-12 
    5       2.142295935978e-10       7.427201086813e-15       3.236696926400e-13       3.271512103613e-15       2.691393811792e-09       1.981753325913e-10      -7.483506782825e-13 
    6       2.073000174298e-10       4.893395182308e-15       2.614216565193e-13       2.377580672929e-15       2.102962200551e-09       1.613515982302e-10      -4.084506309094e-13 
    7       2.027597774238e-10       2.940581977986e-15       2.052903365171e-13       1.647010589441e-15       1.696771282699e-09       1.343072855368e-10      -1.633755874781e-13 
    8       1.998334181029e-10       1.814653206735e-15       1.587590235987e-13       1.133122668132e-15       1.401981123543e-09       1.137593802904e-10      -7.082192657994e-15 
    9       1.980218021902e-10       1.328452425059e-15       1.234554374991e-13       8.244385599909e-16       1.179884672963e-09       9.773336357623e-11       7.491205837071e-14 
   10       1.969698431452e-10       1.183662516290e-15       9.938148077817e-14       6.799380981501e-16       1.007896380095e-09       8.498246534727e-11       1.012931488774e-13 
   11       1.964892790771e-10       1.167567059651e-15       8.522242289921e-14       6.518354046825e-16       8.504865764154e-10       7.498649377854e-11       9.150714681074e-14 
   12       1.964206905506e-10       1.192706387201e-15       7.880660920985e-14       6.987666977120e-16       7.431285526975e-10       6.632851959551e-11       6.295269097281e-14 
   13       1.966483942217e-10       1.249361751720e-15       7.767160764646e-14       7.898622189559e-16       6.550001112045e-10       5.926254384425e-11       2.934772904534e-14 
   14       1.970729623950e-10       1.346356989254e-15       7.956743695750e-14       9.055448320565e-16       5.816759691651e-10       5.310442562240e-11      -7.088417338005e-16 
   15       1.976925349808e-10       1.483283784840e-15       8.272288374951e-14       1.034223774750e-15       5.199569711854e-10       4.793765705258e-11      -2.197679046943e-14 
   16       1.984629782744e-10       1.649641719536e-15       8.583896286336e-14       1.170460989894e-15       4.674818441547e-10       4.352667319268e-11      -3.322870939400e-14 
   17       1.993270984492e-10       1.836136889312e-15       8.821238530898e-14       1.311934268700e-15       4.224670770078e-10       3.969780649982e-11      -3.568923115698e-14 
   18       2.002620858450e-10       2.040823602325e-15       8.977673565727e-14       1.457752748815e-15       3.833967273301e-10       3.630271231758e-11      -3.210443362766e-14 
   19       2.012959574048e-10       2.267544863437e-15       9.064419642153e-14       1.607687846651e-15       3.496501590161e-10       3.331690720306e-11      -2.504732098758e-14 
   20       2.023701480941e-10       2.521292835050e-15       9.098948765441e-14       1.761762885624e-15       3.199277002031e-10       3.068519300485e-11      -1.747558736798e-14 
   21       2.035056115840e-10       2.803892260075e-15       9.108584941852e-14       1.919843482091e-15       2.937627338562e-10       2.836425766438e-11      -1.100158513675e-14 
   22       2.046901850088e-10       3.115425446068e-15       9.121793148044e-14       2.081816569838e-15       2.705292787153e-10       2.627658938079e-11      -6.758797890067e-15 
   23       2.059233061621e-10       3.454697549736e-15       9.137906398192e-14       2.247587179476e-15       2.499081091182e-10       2.439364981500e-11      -4.946580199513e-15 
   24       2.071726436503e-10       3.819853151335e-15       9.141937666040e-14       2.417098868110e-15       2.314228194977e-10       2.268374283157e-11      -5.268464411409e-15 
   25       2.084611954212e-10       4.210888116950e-15       9.113375858495e-14       2.590191629326e-15       2.148561822451e-10       2.115020941232e-11      -7.038791087734e-15 
   26       2.097968867431e-10       4.628251616016e-15       9.025336411498e-14       2.766676615038e-15       1.999085287754e-10       1.978793597865e-11      -9.325880667256e-15 
   27       2.111647981319e-10       5.072328544102e-15       8.849711494630e-14       2.946289302602e-15       1.864006201202e-10       1.856336213569e-11      -1.144258698404e-14 
   28       2.125274899841e-10       5.543502750119e-15       8.558572065283e-14       3.128752974213e-15       1.740996283814e-10       1.742796942567e-11      -1.279764597539e-14 
   29       2.139026379113e-10       6.042635838993e-15       8.143220290071e-14       3.313842316987e-15       1.629427922941e-10       1.637898588178e-11      -1.330717166436e-14 
   30       2.153047075058e-10       6.570764297254e-15       7.601878202673e-14       3.501360868115e-15       1.528103759641e-10       1.542023381204e-11      -1.308125418900e-14 
   31       2.167286056872e-10       7.128959120556e-15       6.934357004515e-14       3.691117421580e-15       1.434957774264e-10       1.454697057420e-11      -1.229195756640e-14 
   32       2.181816753010e-10       7.718271338781e-15       6.141118315788e-14       3.882874202423e-15       1.349509446942e-10       1.375112211613e-11      -1.116005288541e-14 
   33       2.196586835316e-10       8.339768553487e-15       5.224083928010e-14       4.076379681920e-15       1.271155004074e-10       1.301621873147e-11      -9.973009696045e-15 
   34       2.211420147033e-10       8.994483371324e-15       4.186378636254e-14       4.271379666015e-15       1.198798515454e-10       1.232218103351e-11      -9.023287114356e-15 
   35       2.226405355483e-10       9.683181842398e-15       3.030160927002e-14       4.467609742213e-15       1.132070009921e-10       1.167017908699e-11      -8.362657390641e-15 
   36       2.241611701062e-10       1.040650745089e-14       1.758163647479e-14       4.664799713638e-15       1.070434520455e-10       1.106566268132e-11      -7.962465325033e-15 
   37       2.257018860772e-10       1.116503782673e-14       3.723000752770e-15       4.862685501346e-15       1.013090304953e-10       1.051113837687e-11      -7.778754035014e-15 
   38       2.272681359888e-10       1.195928892710e-14      -1.133289903696e-14       5.061044312302e-15       9.598894293674e-11       1.000485982079e-11      -7.758680348262e-15 
   39       2.288596454933e-10       1.278970308034e-14      -2.767670390934e-14       5.259671487238e-15       9.106632962290e-11       9.541170667092e-12      -7.833960538188e-15 
   40       2.304645344470e-10       1.365664102060e-14      -4.541389619820e-14       5.458371770336e-15       8.649426100922e-11       9.110438828648e-12      -7.917523292413e-15 
   41       2.320667434909e-10       1.456043664598e-14      -6.464504699076e-14       5.656939984573e-15       8.221209216564e-11       8.701987164824e-12      -7.924596371044e-15 
   42       2.336739965851e-10       1.550159556961e-14      -8.539617310441e-14       5.855094223632e-15       7.820723471128e-11       8.314814335212e-12      -7.847267555775e-15 
   43       2.352969981397e-10       1.648065221507e-14      -1.076675657187e-13       6.052521799669e-15       7.446907868493e-11       7.949816848012e-12      -7.702063645988e-15 
   44       2.369410834349e-10       1.749811410979e-14      -1.314523647356e-13       6.248896396455e-15       7.097045623662e-11       7.606735174118e-12      -7.509957013129e-15 
   45       2.386078128696e-10       1.855441440816e-14      -1.567385247007e-13       6.443893758224e-15       6.767734940333e-11       7.284519419986e-12      -7.294779402555e-15 
   46       2.403016554440e-10       1.964975542531e-14      -1.835161996341e-13       6.637246321331e-15       6.458458071255e-11       6.982795086726e-12      -7.077254457449e-15 
   47       2.420243416016e-10       2.078421623983e-14      -2.117719984522e-13       6.828703491830e-15       6.168855031402e-11       6.700663443920e-12      -6.879645586744e-15 
   48       2.437724474627e-10       2.195779109398e-14      -2.414866811071e-13       7.018016649672e-15       5.897647082166e-11       6.436200399540e-12      -6.727621955176e-15 
   49       2.455369537984e-10       2.317038550363e-14      -2.726349573892e-13       7.204939263605e-15       5.642568408963e-11       6.186382228578e-12      -6.650424436877e-15 
   50       2.473077671898e-10       2.442183881162e-14      -3.051938163713e-13       7.389227639988e-15       5.401048572850e-11       5.947966685055e-12      -6.672636092052e-15 
   51       2.490897534629e-10       2.571200808992e-14      -3.391706469450e-13       7.570643142284e-15       5.172636757873e-11       5.720590603480e-12      -6.786475137218e-15 
   52       2.508902940061e-10       2.704070028752e-14      -3.745824025026e-13       7.748950772641e-15       4.957117458803e-11       5.504384723678e-12      -6.972268075893e-15 
   53       2.527145013715e-10       2.840764519449e-14      -4.114479329174e-13       7.923918731943e-15       4.753785010655e-11       5.299063177973e-12      -7.205964163742e-15 
   54       2.545650117620e-10       2.981249279630e-14      -4.497881847871e-13       8.095318564541e-15       4.561410596827e-11       5.103894179030e-12      -7.458906280906e-15 
   55       2.564429783248e-10       3.125484441655e-14      -4.896209391941e-13       8.262936249643e-15       4.378617177634e-11       4.917982463232e-12      -7.703878051910e-15 
   56       2.583518153803e-10       3.273436126604e-14      -5.309430354135e-13       8.426608370479e-15       4.205188927356e-11       4.741265937587e-12      -7.935529278236e-15 
   57       2.602940208661e-10       3.425067822545e-14      -5.737440819350e-13       8.586195183847e-15       4.041029301633e-11       4.573715278779e-12      -8.154623286578e-15 
   58       2.622698997965e-10       3.580337111919e-14      -6.180115197359e-13       8.741571019487e-15       3.885764890511e-11       4.415027077620e-12      -8.362220310620e-15 
   59       2.642774035349e-10       3.739195538608e-14      -6.637306097009e-13       8.892624851311e-15       3.738728319589e-11       4.264606673226e-12      -8.559692892484e-15 
   60       2.663119690663e-10       3.901588475017e-14      -7.108844200418e-13       9.039260868627e-15       3.598941151158e-11       4.121550987181e-12      -8.748741284183e-15 
   61       2.683688075533e-10       4.067456669915e-14      -7.594559022845e-13       9.181390717152e-15       3.465385573654e-11       3.984904216218e-12      -8.930710423200e-15 
   62       2.704507338932e-10       4.236741598695e-14      -8.094346922136e-13       9.318906894594e-15       3.337929415450e-11       3.854530811368e-12      -9.104326862642e-15 
   63       2.725618173731e-10       4.409381083627e-14      -8.608118200960e-13       9.451704369900e-15       3.216579363035e-11       3.730408879043e-12      -9.267478889151e-15 
   64       2.747050060962e-10       4.585307641029e-14      -9.135778094438e-13       9.579688687365e-15       3.101202715671e-11       3.612366273764e-12      -9.417863499315e-15 
   65       2.768820439683e-10       4.764448401676e-14      -9.677227307026e-13       9.702776273548e-15       2.991519449577e-11       3.500072089927e-12      -9.552979640593e-15 
   66       2.790933876839e-10       4.946725031198e-14      -1.023236254940e-12       9.820894744189e-15       2.887094282108e-11       3.393028153566e-12      -9.670121452242e-15 
   67       2.813381237129e-10       5.132053650487e-14      -1.080107707533e-12       9.933983211129e-15       2.787328735934e-11       3.290560514112e-12      -9.766371506242e-15 
   68       2.836150734777e-10       5.320341961583e-14      -1.138323978601e-12       1.004198721236e-14       2.691620957454e-11       3.191999518614e-12      -9.839138919291e-15 
   69       2.859265544862e-10       5.511480127005e-14      -1.197862642624e-12       1.014484162324e-14       2.599900515281e-11       3.097281423197e-12      -9.887915411895e-15 
   70       2.882752356760e-10       5.705347890849e-14      -1.258697534720e-12       1.024248481807e-14       2.512188207656e-11       3.006453959454e-12      -9.912864565656e-15 
   71       2.906629649723e-10       5.901817061427e-14      -1.320800769443e-12       1.033486390699e-14       2.428434316151e-11       2.919494918766e-12      -9.914315482928e-15 
   72       2.930907166631e-10       6.100751360200e-14      -1.384142739654e-12       1.042193490533e-14       2.348514960241e-11       2.836308467145e-12      -9.892769963064e-15 
   73       2.955585387740e-10       6.302006270708e-14      -1.448692115398e-12       1.050366290305e-14       2.272228451874e-11       2.756721460080e-12      -9.848909678662e-15 
   74       2.980655004435e-10       6.505428887505e-14      -1.514415842778e-12       1.058002223413e-14       2.199291650038e-11       2.680479757375e-12      -9.783603351813e-15 
   75       3.006096392971e-10       6.710857765088e-14      -1.581279142824e-12       1.065099664596e-14       2.129336315331e-11       2.607244537996e-12      -9.697913930350e-15 
   76       3.031890016552e-10       6.918130230560e-14      -1.649246886947e-12       1.071657707352e-14       2.062000504442e-11       2.536679009979e-12      -9.593371910452e-15 
   77       3.058050984734e-10       7.127106195049e-14      -1.718288015338e-12       1.077675411878e-14       1.997230052866e-11       2.468734940996e-12      -9.472836982771e-15 
   78       3.084599869281e-10       7.337648430129e-14      -1.788371925983e-12       1.083152450126e-14       1.935025701425e-11       2.403411925590e-12      -9.339807279431e-15 
   79       3.111552037658e-10       7.549615491251e-14      -1.859467196226e-12       1.088089344996e-14       1.875351264455e-11       2.340669823530e-12      -9.198179596287e-15 
   80       3.138917350875e-10       7.762861719724e-14      -1.931541609870e-12       1.092487482365e-14       1.818131933244e-11       2.280426928279e-12      -9.052262026723e-15 
   81       3.166699861328e-10       7.977237244697e-14      -2.004562184284e-12       1.096349123113e-14       1.763252579473e-11       2.222558135461e-12      -8.906786595443e-15 
   82       3.194897510645e-10       8.192587985141e-14      -2.078495197495e-12       1.099677415156e-14       1.710556058650e-11       2.166893111328e-12      -8.766921892268e-15 
   83       3.223501827531e-10       8.408755651832e-14      -2.153306215299e-12       1.102476405470e-14       1.659841513558e-11       2.113214461226e-12      -8.638285705930e-15 
   84       3.252503915191e-10       8.625577135171e-14      -2.228958618972e-12       1.104750697182e-14       1.610913178637e-11       2.061310630058e-12      -8.525612060614e-15 
   85       3.281914215954e-10       8.842882547700e-14      -2.305408848629e-12       1.106504329185e-14       1.563739805508e-11       2.011148691867e-12      -8.428470753763e-15 
   86       3.311745484455e-10       9.060496859202e-14      -2.382610417336e-12       1.107741731979e-14       1.518318679148e-11       1.962726980265e-12      -8.344858072420e-15 
   87       3.342006595814e-10       9.278240473793e-14      -2.460515342261e-12       1.108468072064e-14       1.474626631505e-11       1.916022005062e-12      -8.272469463890e-15 
   88       3.372702349189e-10       9.495929221581e-14      -2.539074146575e-12       1.108689258007e-14       1.432619193695e-11       1.870987540602e-12      -8.208689554454e-15 
   89       3.403833271329e-10       9.713374350327e-14      -2.618235861351e-12       1.108411946506e-14       1.392229748195e-11       1.827553714096e-12      -8.150582168083e-15 
   90       3.435395420121e-10       9.930382517103e-14      -2.697948027465e-12       1.107643548450e-14       1.353368681037e-11       1.785626093949e-12      -8.094880345151e-15 
   91       3.467380188141e-10       1.014675577996e-13      -2.778156697504e-12       1.106392234983e-14       1.315922534007e-11       1.745084778100e-12      -8.037976361152e-15 
   92       3.499774106209e-10       1.036229158956e-13      -2.858806437661e-12       1.104666943569e-14       1.279753156833e-11       1.705783482351e-12      -7.975911745414e-15 
   93       3.532564243379e-10       1.057678774679e-13      -2.939841378888e-12       1.102476930736e-14       1.244730477641e-11       1.667585834460e-12      -7.905302520516e-15 
   94       3.565755762664e-10       1.079005814643e-13      -3.021208547057e-12       1.099830340196e-14       1.210838293691e-11       1.630482480764e-12      -7.826295781294e-15 
   95       3.599356654768e-10       1.100191939690e-13      -3.102855039502e-12       1.096735429579e-14       1.178082898100e-11       1.594489988771e-12      -7.740041400205e-15 
   96       3.633372258873e-10       1.121218612438e-13      -3.184727036486e-12       1.093201004403e-14       1.146460498129e-11       1.559614815164e-12      -7.647799245623e-15 
   97       3.667805143019e-10       1.142067103264e-13      -3.266769817501e-12       1.089236417917e-14       1.115956828850e-11       1.525852904848e-12      -7.550942038174e-15 
   98       3.702654984471e-10       1.162718496283e-13      -3.348927777574e-12       1.084851570941e-14       1.086546766812e-11       1.493189290002e-12      -7.450958207074e-15 
   99       3.737918450092e-10       1.183153695333e-13      -3.431144443574e-12       1.080056911705e-14       1.058193943708e-11       1.461597689126e-12      -7.349454746463e-15 
  100       3.773589076718e-10       1.203353429961e-13      -3.513362490515e-12       1.074863435690e-14       1.030850360045e-11       1.431040106095e-12      -7.248160071738e-15 
  101       3.809657151524e-10       1.223298261398e-13      -3.595523757859e-12       1.069282685470e-14       1.004455998807e-11       1.401466429206e-12      -7.148926875897e-15 
  102       3.846109592405e-10       1.242968588547e-13      -3.677569265823e-12       1.063326750552e-14       9.789384391257e-12       1.372814030229e-12      -7.053734985864e-15 
  103       3.882929828340e-10       1.262344653966e-13      -3.759439231681e-12       1.057008267214e-14       9.542124699448e-12       1.345007363459e-12      -6.964694218833e-15 
  104       3.920102187942e-10       1.281406961895e-13      -3.841073146600e-12       1.050339959653e-14       9.301994018602e-12       1.317975505508e-12      -6.883567800407e-15 
  105       3.957625997919e-10       1.300137583770e-13      -3.922409982838e-12       1.043333193161e-14       9.068888057857e-12       1.291708336706e-12      -6.810263146636e-15 
  106       3.995503174955e-10       1.318519041044e-13      -4.003388045063e-12       1.035999224296e-14       8.842844328703e-12       1.266207236836e-12      -6.744141584571e-15 
  107       4.033733818359e-10       1.336533919266e-13      -4.083944929084e-12       1.028349636989e-14       8.623850932573e-12       1.241467620759e-12      -6.684477201733e-15 
