# Matter power spectrum P(k) at redshift z=0
# for k=1.03892e-05 to 104.924 h/Mpc,
# number of wavenumbers equal to 622
#    1:k (h/Mpc)              2:P (Mpc/h)^3        
       1.038922642939e-05       5.116730950099e+01 
       2.321812845909e-05       1.108985048323e+02 
       3.609173376214e-05       1.695112977688e+02 
       4.904439972694e-05       2.276638397061e+02 
       6.211104704304e-05       2.857257342488e+02 
       7.532746857735e-05       3.439710372198e+02 
       8.873064804491e-05       4.026322135432e+02 
       1.023590926816e-04       4.619220977805e+02 
       1.162531841578e-04       5.220451198431e+02 
       1.304555520066e-04       5.832040275900e+02 
       1.450114738457e-04       6.456045014353e+02 
       1.599693066204e-04       7.094587178216e+02 
       1.753809529236e-04       7.749883435647e+02 
       1.913023661048e-04       8.424272574240e+02 
       2.077940972509e-04       9.120241285226e+02 
       2.249218861033e-04       9.840449553794e+02 
       2.427572963948e-04       1.058775599125e+03 
       2.613783937365e-04       1.136524337876e+03 
       2.808704608154e-04       1.217624392699e+03 
       3.013267399410e-04       1.302436458752e+03 
       3.228491865615e-04       1.391351064472e+03 
       3.455492088575e-04       1.484790744841e+03 
       3.695483575494e-04       1.583211803042e+03 
       3.949789163640e-04       1.687105460860e+03 
       4.219843271948e-04       1.796998146443e+03 
       4.507193653101e-04       1.913450522368e+03 
       4.813499602484e-04       2.037054886774e+03 
       5.140525396193e-04       2.168430445189e+03 
       5.490127597170e-04       2.308215969240e+03 
       5.864234841228e-04       2.457059384902e+03 
       6.264818863381e-04       2.615603884337e+03 
       6.693855925968e-04       2.784470432189e+03 
       7.153278528513e-04       2.964236807464e+03 
       7.644918338936e-04       3.155413796088e+03 
       8.170442633386e-04       3.358419703345e+03 
       8.731288006755e-04       3.573554893841e+03 
       9.328596442615e-04       3.800978509309e+03 
       9.963159659542e-04       4.040689818918e+03 
       1.063537764581e-03       4.292516472355e+03 
       1.134523626239e-03       4.556111457085e+03 
       1.209230679194e-03       4.830959526905e+03 
       1.287576767919e-03       5.116392942125e+03 
       1.369444599257e-03       5.411599528991e+03 
       1.454687391959e-03       5.715670020922e+03 
       1.543135431684e-03       6.027661460620e+03 
       1.634602912099e-03       6.346568461930e+03 
       1.728894515478e-03       6.671375576581e+03 
       1.825811320550e-03       7.001081725899e+03 
       1.925155782887e-03       7.334719858253e+03 
       2.026735681319e-03       7.671371747145e+03 
       2.130367042364e-03       8.010178315200e+03 
       2.235876135455e-03       8.350346303115e+03 
       2.343100676636e-03       8.691150338754e+03 
       2.451890394377e-03       9.031933330652e+03 
       2.562107107073e-03       9.372104718978e+03 
       2.673624445823e-03       9.711136907555e+03 
       2.786327334635e-03       1.004856114864e+04 
       2.900111317649e-03       1.038396344736e+04 
       3.014881802039e-03       1.071698026933e+04 
       3.130553267074e-03       1.104729280700e+04 
       3.247048475047e-03       1.137462348128e+04 
       3.364297708069e-03       1.169872936562e+04 
       3.482238045923e-03       1.201940331324e+04 
       3.600812693636e-03       1.233646337484e+04 
       3.719970362791e-03       1.264975838644e+04 
       3.839664707406e-03       1.295915425770e+04 
       3.959853813072e-03       1.326454169169e+04 
       4.080499736700e-03       1.356582939091e+04 
       4.201568093487e-03       1.386293791576e+04 
       4.323027687306e-03       1.415580904864e+04 
       4.444850180647e-03       1.444438695239e+04 
       4.567009800288e-03       1.472864174463e+04 
       4.689483075068e-03       1.500853820675e+04 
       4.812248602367e-03       1.528405976341e+04 
       4.935286840186e-03       1.555519825580e+04 
       5.058579921982e-03       1.582194168800e+04 
       5.182111491712e-03       1.608429837900e+04 
       5.305866556801e-03       1.634226641240e+04 
       5.429831356981e-03       1.659586078346e+04 
       5.553993247203e-03       1.684510045225e+04 
       5.678340593006e-03       1.708999451162e+04 
       5.802862676925e-03       1.733057184924e+04 
       5.927549614681e-03       1.756686330022e+04 
       6.052392280055e-03       1.779891600958e+04 
       6.177382237450e-03       1.802669413481e+04 
       6.302511681309e-03       1.825024468481e+04 
       6.427773381594e-03       1.846963283391e+04 
       6.553160634691e-03       1.868485922086e+04 
       6.678667219122e-03       1.889584530828e+04 
       6.804287355565e-03       1.910287472258e+04 
       6.930015670697e-03       1.930586201021e+04 
       7.055847164479e-03       1.950485342625e+04 
       7.181777180500e-03       1.969987459055e+04 
       7.307801379070e-03       1.989096332564e+04 
       7.433915712780e-03       2.007817446682e+04 
       7.560116404275e-03       2.026153086299e+04 
       7.686399926014e-03       2.044107656111e+04 
       7.812762981824e-03       2.061685139791e+04 
       7.939202490069e-03       2.078889288767e+04 
       8.065715568266e-03       2.095723690636e+04 
       8.192299519032e-03       2.112192912753e+04 
       8.318951817208e-03       2.128300169101e+04 
       8.445670098061e-03       2.144049358947e+04 
       8.572452146473e-03       2.159444412812e+04 
       8.699295887004e-03       2.174489831889e+04 
       8.826199374762e-03       2.189189174584e+04 
       8.953160787016e-03       2.203545456437e+04 
       9.080178415458e-03       2.217562855062e+04 
       9.207250659091e-03       2.231247654243e+04 
       9.334376017655e-03       2.244600168513e+04 
       9.461553085571e-03       2.257625517035e+04 
       9.588780546346e-03       2.270327299820e+04 
       9.716057167395e-03       2.282709014706e+04 
       9.843381795261e-03       2.294774146104e+04 
       9.970753351188e-03       2.306527881283e+04 
       1.009817082702e-02       2.317971481670e+04 
       1.022563328138e-02       2.329109938048e+04 
       1.035313983621e-02       2.339946164956e+04 
       1.048068967341e-02       2.350481913613e+04 
       1.060828203188e-02       2.360725598518e+04 
       1.073591620467e-02       2.370676369122e+04 
       1.086359153639e-02       2.380339032938e+04 
       1.099130742072e-02       2.389717635075e+04 
       1.111906329821e-02       2.398815224853e+04 
       1.124685865418e-02       2.407630808470e+04 
       1.137469301670e-02       2.416174559630e+04 
       1.150256595483e-02       2.424445601880e+04 
       1.163047707693e-02       2.432447275620e+04 
       1.175842602905e-02       2.440184861894e+04 
       1.188641249350e-02       2.447658526928e+04 
       1.201443618746e-02       2.454874868675e+04 
       1.214249686173e-02       2.461834834246e+04 
       1.227059429957e-02       2.468541710014e+04 
       1.239872831558e-02       2.474998225565e+04 
       1.252689875467e-02       2.481207406623e+04 
       1.265510549116e-02       2.487172987942e+04 
       1.278334842789e-02       2.492898105190e+04 
       1.291162749538e-02       2.498382407553e+04 
       1.303994265110e-02       2.503635064779e+04 
       1.316829387881e-02       2.508653298183e+04 
       1.329668118784e-02       2.513444195849e+04 
       1.342510461258e-02       2.518005370363e+04 
       1.355356421189e-02       2.522345607907e+04 
       1.368206006859e-02       2.526463306854e+04 
       1.381059228906e-02       2.530362955100e+04 
       1.393916100277e-02       2.534046847668e+04 
       1.406776636193e-02       2.537517582515e+04 
       1.419640854111e-02       2.540778858811e+04 
       1.432508773700e-02       2.543831261774e+04 
       1.445380416806e-02       2.546679250645e+04 
       1.458255807434e-02       2.549326564709e+04 
       1.471134971720e-02       2.551771171858e+04 
       1.484017937920e-02       2.554020935679e+04 
       1.496904736387e-02       2.556074353683e+04 
       1.509795399561e-02       2.557937090858e+04 
       1.522689961960e-02       2.559609329704e+04 
       1.535588460168e-02       2.561094352672e+04 
       1.548490932832e-02       2.562395307627e+04 
       1.561397420656e-02       2.563513598679e+04 
       1.574307966400e-02       2.564452663752e+04 
       1.587222614882e-02       2.565213876995e+04 
       1.600141412980e-02       2.565800066087e+04 
       1.613064409636e-02       2.566212221971e+04 
       1.625991655862e-02       2.566456150819e+04 
       1.638923204749e-02       2.566532454741e+04 
       1.651859111480e-02       2.566440714900e+04 
       1.664799433338e-02       2.566189049499e+04 
       1.677744229721e-02       2.565773396507e+04 
       1.690693562161e-02       2.565202601357e+04 
       1.703647494338e-02       2.564470290047e+04 
       1.716606092099e-02       2.563585073868e+04 
       1.729569423481e-02       2.562548899106e+04 
       1.742537558732e-02       2.561361125079e+04 
       1.755510570338e-02       2.560028747889e+04 
       1.768488533045e-02       2.558548494038e+04 
       1.781471523888e-02       2.556925451615e+04 
       1.794459622222e-02       2.555162686774e+04 
       1.807452909752e-02       2.553255803497e+04 
       1.820451470563e-02       2.551214770142e+04 
       1.833455391158e-02       2.549040618863e+04 
       1.846464760492e-02       2.546731963755e+04 
       1.859479670009e-02       2.544291449482e+04 
       1.872500213684e-02       2.541725911922e+04 
       1.885526488061e-02       2.539029477432e+04 
       1.898558592297e-02       2.536208384203e+04 
       1.911596628205e-02       2.533264911831e+04 
       1.924640700304e-02       2.530199727613e+04 
       1.937690915863e-02       2.527017815247e+04 
       1.950747384953e-02       2.523716706355e+04 
       1.963810220498e-02       2.520302373420e+04 
       1.976879538328e-02       2.516773433017e+04 
       1.989955457238e-02       2.513135557502e+04 
       2.003038099040e-02       2.509383382935e+04 
       2.016127588626e-02       2.505529513084e+04 
       2.029224054028e-02       2.501567931441e+04 
       2.042327626483e-02       2.497498073007e+04 
       2.055438440499e-02       2.493330244755e+04 
       2.068556633919e-02       2.489062215828e+04 
       2.081682347996e-02       2.484697473746e+04 
       2.094815727463e-02       2.480230048481e+04 
       2.107956920606e-02       2.475673132345e+04 
       2.121106079346e-02       2.471019912759e+04 
       2.134263359312e-02       2.466275881392e+04 
       2.147428919931e-02       2.461442012774e+04 
       2.160602924503e-02       2.456520545347e+04 
       2.173785540298e-02       2.451513350872e+04 
       2.186976938640e-02       2.446418720155e+04 
       2.200177295002e-02       2.441239026098e+04 
       2.213386789099e-02       2.435984439518e+04 
       2.226605604995e-02       2.430649992490e+04 
       2.239833931192e-02       2.425232601223e+04 
       2.253071960749e-02       2.419741961239e+04 
       2.266319891380e-02       2.414175557255e+04 
       2.279577925570e-02       2.408536769718e+04 
       2.292846270690e-02       2.402822253952e+04 
       2.306125139117e-02       2.397041543743e+04 
       2.319414748354e-02       2.391183815030e+04 
       2.332715321158e-02       2.385268175938e+04 
       2.346027085672e-02       2.379281724431e+04 
       2.359350275556e-02       2.373232406212e+04 
       2.372685130130e-02       2.367120877089e+04 
       2.386031894513e-02       2.360944952526e+04 
       2.399390819777e-02       2.354708392520e+04 
       2.412762163093e-02       2.348421173851e+04 
       2.426146187892e-02       2.342072242523e+04 
       2.439543164029e-02       2.335664265865e+04 
       2.452953367946e-02       2.329200603410e+04 
       2.466377082853e-02       2.322686796394e+04 
       2.479814598899e-02       2.316121111039e+04 
       2.493266213362e-02       2.309508609511e+04 
       2.506732230841e-02       2.302842802457e+04 
       2.520212963448e-02       2.296129252360e+04 
       2.533708731018e-02       2.289368548983e+04 
       2.547219861317e-02       2.282559484407e+04 
       2.560746690259e-02       2.275708971608e+04 
       2.574289562134e-02       2.268820223406e+04 
       2.587848829840e-02       2.261885909693e+04 
       2.601424855124e-02       2.254912812025e+04 
       2.615018008833e-02       2.247893577044e+04 
       2.628628671169e-02       2.240842027748e+04 
       2.642257231958e-02       2.233754809954e+04 
       2.655904090928e-02       2.226628306256e+04 
       2.669569657994e-02       2.219464928587e+04 
       2.683254353554e-02       2.212278517110e+04 
       2.696958608796e-02       2.205047975763e+04 
       2.710682866019e-02       2.197792006440e+04 
       2.724427578962e-02       2.190503664360e+04 
       2.738193213142e-02       2.183187256387e+04 
       2.751980246214e-02       2.175842239409e+04 
       2.765789168337e-02       2.168467776282e+04 
       2.779620482556e-02       2.161074429503e+04 
       2.793474705194e-02       2.153645579098e+04 
       2.807352366270e-02       2.146198012314e+04 
       2.821254009921e-02       2.138722620869e+04 
       2.835180194844e-02       2.131231754497e+04 
       2.849131494763e-02       2.123715859247e+04 
       2.863108498899e-02       2.116182335805e+04 
       2.877111812472e-02       2.108621631614e+04 
       2.891142057220e-02       2.101041281790e+04 
       2.905199871931e-02       2.093452405162e+04 
       2.919285913007e-02       2.085844185685e+04 
       2.933400855045e-02       2.078216830513e+04 
       2.947545391441e-02       2.070572046919e+04 
       2.961720235026e-02       2.062917508037e+04 
       2.975926118717e-02       2.055242236064e+04 
       2.990163796208e-02       2.047563712911e+04 
       3.004434042682e-02       2.039867686180e+04 
       3.018737655555e-02       2.032161964323e+04 
       3.033075455253e-02       2.024441470200e+04 
       3.047448286026e-02       2.016713667776e+04 
       3.061857016788e-02       2.008975628506e+04 
       3.076302542009e-02       2.001227078013e+04 
       3.090785782629e-02       1.993472664720e+04 
       3.105307687032e-02       1.985712577282e+04 
       3.119869232049e-02       1.977941328613e+04 
       3.134471424015e-02       1.970168482309e+04 
       3.149115299874e-02       1.962384423566e+04 
       3.163801928332e-02       1.954602268984e+04 
       3.178532411072e-02       1.946812715308e+04 
       3.193307884016e-02       1.939011749940e+04 
       3.208129518661e-02       1.931221867164e+04 
       3.222998523465e-02       1.923423800651e+04 
       3.237916145315e-02       1.915614928973e+04 
       3.252883671060e-02       1.907806136146e+04 
       3.267902429119e-02       1.900001482006e+04 
       3.282973791180e-02       1.892193820460e+04 
       3.298099173971e-02       1.884389878697e+04 
       3.313280041138e-02       1.876584097730e+04 
       3.328517905210e-02       1.868767205798e+04 
       3.343814329670e-02       1.860964177219e+04 
       3.359170931139e-02       1.853156911651e+04 
       3.374589381675e-02       1.845355304534e+04 
       3.390071411198e-02       1.837550360482e+04 
       3.405618810047e-02       1.829753983102e+04 
       3.421233431678e-02       1.821952410565e+04 
       3.436917195518e-02       1.814155492044e+04 
       3.452672089976e-02       1.806365610788e+04 
       3.468500175632e-02       1.798577938128e+04 
       3.484403588603e-02       1.790792005343e+04 
       3.500384544118e-02       1.783011542541e+04 
       3.516445340293e-02       1.775231988779e+04 
       3.532588362145e-02       1.767461073382e+04 
       3.548816085839e-02       1.759688963509e+04 
       3.565131083206e-02       1.751925107802e+04 
       3.581536026535e-02       1.744168055904e+04 
       3.598033693675e-02       1.736406820952e+04 
       3.614626973450e-02       1.728661335548e+04 
       3.631318871440e-02       1.720915954954e+04 
       3.648112516130e-02       1.713168044690e+04 
       3.665011165467e-02       1.705433085382e+04 
       3.682018213864e-02       1.697697810145e+04 
       3.699137199672e-02       1.689968980422e+04 
       3.716371813175e-02       1.682248860448e+04 
       3.733725905139e-02       1.674533194647e+04 
       3.751203495968e-02       1.666823079597e+04 
       3.768808785517e-02       1.659105554808e+04 
       3.786546163621e-02       1.651403216490e+04 
       3.804420221400e-02       1.643702093676e+04 
       3.822435763412e-02       1.636008768836e+04 
       3.840597820729e-02       1.628315313258e+04 
       3.858911665021e-02       1.620633165766e+04 
       3.877382823744e-02       1.612941441777e+04 
       3.896017096531e-02       1.605261735836e+04 
       3.914820572912e-02       1.597578126596e+04 
       3.933799651479e-02       1.589903992612e+04 
       3.952961060649e-02       1.582226388294e+04 
       3.972311881184e-02       1.574555447443e+04 
       3.991859570646e-02       1.566877899788e+04 
       4.011611989981e-02       1.559205602409e+04 
       4.031577432478e-02       1.551532735039e+04 
       4.051764655330e-02       1.543865281919e+04 
       4.072182914103e-02       1.536184303173e+04 
       4.092842000427e-02       1.528514016660e+04 
       4.113752283270e-02       1.520834310355e+04 
       4.134924754215e-02       1.513146851606e+04 
       4.156371077200e-02       1.505461829709e+04 
       4.178103643268e-02       1.497769288038e+04 
       4.200135630908e-02       1.490072033376e+04 
       4.222481072715e-02       1.482367585982e+04 
       4.245154929133e-02       1.474655079000e+04 
       4.268173170212e-02       1.466933948494e+04 
       4.291552866429e-02       1.459201290024e+04 
       4.315312289772e-02       1.451449936664e+04 
       4.339471026507e-02       1.443689551603e+04 
       4.364050103247e-02       1.435921675432e+04 
       4.389072128218e-02       1.428129960513e+04 
       4.414561449944e-02       1.420323323949e+04 
       4.440544335924e-02       1.412493132490e+04 
       4.467049174356e-02       1.404639352116e+04 
       4.494106702499e-02       1.396763777829e+04 
       4.521750265889e-02       1.388869979632e+04 
       4.550016113459e-02       1.380933904553e+04 
       4.578943734550e-02       1.372972129849e+04 
       4.608576244959e-02       1.364972747776e+04 
       4.638960830630e-02       1.356937323021e+04 
       4.670149259324e-02       1.348856288073e+04 
       4.702198472785e-02       1.340733084576e+04 
       4.735171274612e-02       1.332563467330e+04 
       4.769137132355e-02       1.324330931371e+04 
       4.804173116565e-02       1.316044856547e+04 
       4.840365004720e-02       1.307690891231e+04 
       4.877808584554e-02       1.299266239184e+04 
       4.916611199626e-02       1.290764628752e+04 
       4.956893590514e-02       1.282172464321e+04 
       4.998792098422e-02       1.273482376919e+04 
       5.042461315084e-02       1.264687582749e+04 
       5.088077284597e-02       1.255772410189e+04 
       5.135841390588e-02       1.246728448687e+04 
       5.185985097268e-02       1.237535903518e+04 
       5.238775757251e-02       1.228172746095e+04 
       5.294523753989e-02       1.218628586733e+04 
       5.353591313136e-02       1.208850926577e+04 
       5.416403393891e-02       1.198828957608e+04 
       5.483461152136e-02       1.188515441239e+04 
       5.555358534914e-02       1.177859830706e+04 
       5.632802581481e-02       1.166796505166e+04 
       5.716637887099e-02       1.155243453668e+04 
       5.807875266862e-02       1.143088068208e+04 
       5.907723625763e-02       1.130190937053e+04 
       6.017621843407e-02       1.116360853444e+04 
       6.139263231738e-02       1.101345439126e+04 
