# dimensionless total lensed [l(l+1)/2pi] C_l's
# for l=2 to 2500, i.e. number of multipoles equal to 2499
#
# -> if you prefer output in CAMB/HealPix/LensPix units/order, set 'format' to 'camb' in input file
# -> if you don't want to see such a header, set 'headers' to 'no' in input file
# -> for CMB lensing (phi), these are C_l^phi-phi for the lensing potential.
#    Remember the conversion factors:
#    C_l^dd (deflection) = l(l+1) C_l^phi-phi
#    C_l^gg (shear/convergence) = 1/4 (l(l+1))^2 C_l^phi-phi
#
# 1:l     2:TT                     3:EE                     4:TE                     5:BB                     6:phiphi                 7:TPhi                   8:Ephi               
    2       2.864510184033e-10       7.694058784691e-15       5.633138519882e-13       4.734776885901e-15       8.381361454863e-09       4.684504637948e-10      -2.053280096767e-12 
    3       2.442614667091e-10       9.888635203223e-15       4.527983268095e-13       4.745713711971e-15       5.156860164930e-09       3.327948627533e-10      -1.638694346725e-12 
    4       2.252617403421e-10       9.392767733164e-15       3.862272007586e-13       4.108055499583e-15       3.590743485469e-09       2.521614144146e-10      -1.158302260063e-12 
    5       2.146582643968e-10       7.190902984918e-15       3.224756613939e-13       3.203518369712e-15       2.681708415472e-09       1.992707677991e-10      -7.315063353729e-13 
    6       2.077146756238e-10       4.696798515939e-15       2.597398846339e-13       2.315398145773e-15       2.095278207506e-09       1.622335748561e-10      -3.932920077810e-13 
    7       2.031950909011e-10       2.808599447689e-15       2.034088862608e-13       1.596882622998e-15       1.690139709503e-09       1.350061558882e-10      -1.516073310913e-13 
    8       2.002430672105e-10       1.740329098720e-15       1.570082154142e-13       1.096929957290e-15       1.395938591592e-09       1.142931399073e-10       5.217370614674e-16 
    9       1.984235861867e-10       1.289546267919e-15       1.220793144867e-13       8.011642940171e-16       1.174441215215e-09       9.817662850761e-11       7.843689211603e-14 
   10       1.974144190843e-10       1.160187586281e-15       9.839353201356e-14       6.667305183396e-16       1.003105385074e-09       8.538225509824e-11       1.014683877001e-13 
   11       1.969102258589e-10       1.148872736569e-15       8.456721018016e-14       6.458086346825e-16       8.468436612193e-10       7.526689653177e-11       8.937784902180e-14 
   12       1.968369125098e-10       1.176760407277e-15       7.842564079134e-14       6.969430292938e-16       7.398936441167e-10       6.665107913574e-11       5.993069477634e-14 
   13       1.970555282162e-10       1.236657638648e-15       7.745211514976e-14       7.904733140824e-16       6.521054551143e-10       5.940280687051e-11       2.612603335589e-14 
   14       1.974909140803e-10       1.337209648321e-15       7.939165838471e-14       9.070251815569e-16       5.790620287192e-10       5.331864747412e-11      -3.071173826539e-15 
   15       1.981147721456e-10       1.476191980101e-15       8.243654184001e-14       1.036083790696e-15       5.175857189225e-10       4.817536659647e-11      -2.313799435205e-14 
   16       1.988456108024e-10       1.643309785654e-15       8.540190252729e-14       1.172314677032e-15       4.653209064236e-10       4.374512450760e-11      -3.319548458465e-14 
   17       1.997364668688e-10       1.830272757638e-15       8.770632537516e-14       1.313518306433e-15       4.204870221886e-10       3.979703710965e-11      -3.492838897853e-14 
   18       2.006902703927e-10       2.035849460698e-15       8.919078277785e-14       1.459167511030e-15       3.815740887653e-10       3.636364654280e-11      -3.090101777195e-14 
   19       2.017242962178e-10       2.263962833915e-15       8.999951878925e-14       1.609077236290e-15       3.479641089763e-10       3.339944298200e-11      -2.364923254007e-14 
   20       2.028099860734e-10       2.519425587019e-15       9.039202099958e-14       1.763195241944e-15       3.183638405767e-10       3.073445860214e-11      -1.618609855913e-14 
   21       2.039583524582e-10       2.803624311468e-15       9.060364839737e-14       1.921384945271e-15       2.923082374670e-10       2.835912949617e-11      -1.007249912724e-14 
   22       2.051380145505e-10       3.116154318398e-15       9.083992395444e-14       2.083552464673e-15       2.691730227529e-10       2.627521590175e-11      -6.317197100816e-15 
   23       2.063677563919e-10       3.455919279374e-15       9.108940668145e-14       2.249607500502e-15       2.486398041402e-10       2.444478984723e-11      -4.936687965614e-15 
   24       2.076409943338e-10       3.821365851666e-15       9.121291263606e-14       2.419475497906e-15       2.302338089824e-10       2.279134663392e-11      -5.455510058504e-15 
   25       2.089543914124e-10       4.212550703904e-15       9.095986254302e-14       2.592905668662e-15       2.137385748044e-10       2.127599330600e-11      -7.265955602516e-15 
   26       2.102798522169e-10       4.629934421617e-15       9.001260094628e-14       2.769614411555e-15       1.988557046326e-10       1.986389382447e-11      -9.584562851640e-15 
   27       2.116279414874e-10       5.074009033707e-15       8.814517115309e-14       2.949408519406e-15       1.854070385623e-10       1.857260151950e-11      -1.168975242398e-14 
   28       2.130021938751e-10       5.545288447739e-15       8.515978382003e-14       3.132126663213e-15       1.731610931876e-10       1.742360051192e-11      -1.291480315237e-14 
   29       2.144159618189e-10       6.044638770554e-15       8.096330408874e-14       3.317540961455e-15       1.620551002650e-10       1.640472721220e-11      -1.322033573422e-14 
   30       2.158613048769e-10       6.573053411832e-15       7.549787583479e-14       3.505407623996e-15       1.519692902548e-10       1.547845457315e-11      -1.281561994756e-14 
   31       2.173110603768e-10       7.131562403129e-15       6.872477172380e-14       3.695486670487e-15       1.426974295970e-10       1.459998172567e-11      -1.196793690480e-14 
   32       2.187764959577e-10       7.721240247227e-15       6.066825236374e-14       3.887536838835e-15       1.341917378801e-10       1.377124273430e-11      -1.087597508677e-14 
   33       2.202664340155e-10       8.343204018934e-15       5.139111219106e-14       4.081319225835e-15       1.263924091454e-10       1.300578748559e-11      -9.757438469297e-15 
   34       2.217758062471e-10       8.998513478101e-15       4.096397877280e-14       4.276599729773e-15       1.191906400423e-10       1.231178073256e-11      -8.836807317742e-15 
   35       2.233061330386e-10       9.687825059866e-15       2.939090171102e-14       4.473152147768e-15       1.125495490659e-10       1.168286996534e-11      -8.175088501919e-15 
   36       2.248488658409e-10       1.041160739810e-14       1.665848673834e-14       4.670756664715e-15       1.064157066643e-10       1.110309674387e-11      -7.781197630603e-15 
   37       2.263883375866e-10       1.117028463007e-14       2.747588605001e-15       4.869189084379e-15       1.007091293113e-10       1.055438426358e-11      -7.645753165387e-15 
   38       2.279366092743e-10       1.196444292490e-14      -1.239350986743e-14       5.068185580873e-15       9.541505222502e-11       1.003626589208e-11      -7.705956507156e-15 
   39       2.295080301045e-10       1.279468432930e-14      -2.883201907993e-14       5.267465874635e-15       9.051669982787e-11       9.552088862836e-12      -7.866786279354e-15 
   40       2.311087056943e-10       1.366156782730e-14      -4.664441978125e-14       5.466741960760e-15       8.596737546202e-11       9.103508240375e-12      -8.008266819461e-15 
   41       2.327380728551e-10       1.456560680589e-14      -6.590599471481e-14       5.665727832556e-15       8.170672889081e-11       8.690272454030e-12      -8.016923880777e-15 
   42       2.343965044703e-10       1.550726733263e-14      -8.665353162568e-14       5.864173783960e-15       7.772220208687e-11       8.309918261091e-12      -7.896451834025e-15 
   43       2.360785950831e-10       1.648696450499e-14      -1.089117345103e-13       6.061842346121e-15       7.400319305307e-11       7.957680782087e-12      -7.690282424049e-15 
   44       2.377701032216e-10       1.750505929215e-14      -1.327033656032e-13       6.258499128939e-15       7.052261638888e-11       7.626348612794e-12      -7.452188488498e-15 
   45       2.394550905958e-10       1.856184286873e-14      -1.580435049004e-13       6.453903387745e-15       6.724657380437e-11       7.308391679248e-12      -7.236314812473e-15 
   46       2.411416970641e-10       1.965749076022e-14      -1.849203496258e-13       6.647775999085e-15       6.416990507981e-11       7.003523524392e-12      -7.062252542732e-15 
   47       2.428427632247e-10       2.079209013128e-14      -2.133086259014e-13       6.839822171693e-15       6.128903361411e-11       6.713096577616e-12      -6.940580252302e-15 
   48       2.445682857273e-10       2.196564790615e-14      -2.431744539998e-13       7.029739813457e-15       5.859124467621e-11       6.437947998611e-12      -6.882558996149e-15 
   49       2.463251036910e-10       2.317808717528e-14      -2.744749907849e-13       7.217219132590e-15       5.605400586389e-11       6.178354205531e-12      -6.900143694716e-15 
   50       2.481169317329e-10       2.442927544730e-14      -3.071709025090e-13       7.401960919956e-15       5.365175242274e-11       5.934112665002e-12      -7.000899960653e-15 
   51       2.499451971328e-10       2.571912678252e-14      -3.412686040325e-13       7.583738171624e-15       5.137999104082e-11       5.704918929632e-12      -7.171101553784e-15 
   52       2.518078878614e-10       2.704752117101e-14      -3.767888669003e-13       7.762350503670e-15       4.923656412795e-11       5.490013342211e-12      -7.388064598499e-15 
   53       2.536989356129e-10       2.841427306509e-14      -4.137552314491e-13       7.937607401866e-15       4.721443632629e-11       5.288024172316e-12      -7.624618202890e-15 
   54       2.556079185338e-10       2.981912928456e-14      -4.521942530296e-13       8.109328701966e-15       4.530136625666e-11       5.096928133269e-12      -7.848876098440e-15 
   55       2.575242938299e-10       3.126177830219e-14      -4.921294834603e-13       8.277343898677e-15       4.348363904454e-11       4.914605634943e-12      -8.032153205435e-15 
   56       2.594520079124e-10       3.274188560042e-14      -5.335611004645e-13       8.441488771220e-15       4.175910172312e-11       4.740758522345e-12      -8.175541482766e-15 
   57       2.613979950320e-10       3.425906342882e-14      -5.764816490266e-13       8.601608760750e-15       4.012679114218e-11       4.575399586811e-12      -8.289536098729e-15 
   58       2.633678472411e-10       3.581285857794e-14      -6.208818648861e-13       8.757560493432e-15       3.858299056567e-11       4.418283613570e-12      -8.386555971246e-15 
   59       2.653656936109e-10       3.740275072784e-14      -6.667506766786e-13       8.909212215099e-15       3.712105963031e-11       4.268891070225e-12      -8.481032742328e-15 
   60       2.673940794497e-10       3.902815079673e-14      -7.140752080765e-13       9.056444225900e-15       3.573126430405e-11       4.126411795231e-12      -8.589499752522e-15 
   61       2.694546196432e-10       4.068841852219e-14      -7.628412648118e-13       9.199146362543e-15       3.440347895714e-11       3.989987500459e-12      -8.726119833780e-15 
   62       2.715504032885e-10       4.238292355219e-14      -8.130349186443e-13       9.337208801289e-15       3.313638599906e-11       3.859539787563e-12      -8.887894363629e-15 
   63       2.736839169322e-10       4.411099519860e-14      -8.646412843488e-13       9.470529952496e-15       3.193004885484e-11       3.735099889527e-12      -9.066277002004e-15 
   64       2.758562237627e-10       4.587190339397e-14      -9.176440833854e-13       9.599019565102e-15       3.078314471971e-11       3.616558317853e-12      -9.251387266724e-15 
   65       2.780668673896e-10       4.766485765046e-14      -9.720256614249e-13       9.722599067592e-15       2.969288564762e-11       3.503656763013e-12      -9.431954785100e-15 
   66       2.803137756246e-10       4.948900601860e-14      -1.027767005875e-12       9.841201908986e-15       2.865493963974e-11       3.395979994911e-12      -9.595263545556e-15 
   67       2.825931642614e-10       5.134343404617e-14      -1.084847763404e-12       9.954773899806e-15       2.766335173288e-11       3.292947763333e-12      -9.727096149231e-15 
   68       2.849012717681e-10       5.322715874700e-14      -1.143246713726e-12       1.006326653186e-14       2.671213349061e-11       3.193973412312e-12      -9.815070641571e-15 
   69       2.872401866074e-10       5.513911141567e-14      -1.202943263247e-12       1.016661460356e-14       2.580058186468e-11       3.098995149126e-12      -9.859560757950e-15 
   70       2.896130332567e-10       5.707814944421e-14      -1.263916286943e-12       1.026475465262e-14       2.492890126671e-11       3.008038368621e-12      -9.864898425111e-15 
   71       2.920221972621e-10       5.904305985623e-14      -1.326143727556e-12       1.035763173462e-14       2.409659493204e-11       2.921054697050e-12      -9.836207424751e-15 
   72       2.944692758446e-10       6.103255813806e-14      -1.389602624785e-12       1.044519958445e-14       2.330242867833e-11       2.837918156312e-12      -9.779434411888e-15 
   73       2.969550285071e-10       6.304528707004e-14      -1.454269144486e-12       1.052742077764e-14       2.254439466426e-11       2.758421328187e-12      -9.701379933217e-15 
   74       2.994793276408e-10       6.507981555765e-14      -1.520118607860e-12       1.060426689185e-14       2.181967514807e-11       2.682271518577e-12      -9.609729445483e-15 
   75       3.020411091320e-10       6.713463746281e-14      -1.587125520654e-12       1.067571866822e-14       2.112460624621e-11       2.609086921741e-12      -9.513084333837e-15 
   76       3.046392239947e-10       6.920821856564e-14      -1.655262656353e-12       1.074176438506e-14       2.045558691019e-11       2.538493207962e-12      -9.419166837730e-15 
   77       3.072752817456e-10       7.129914992032e-14      -1.724498048219e-12       1.080239427968e-14       1.981207733297e-11       2.470442099836e-12      -9.328988351324e-15 
   78       3.099512382038e-10       7.340602047092e-14      -1.794797499231e-12       1.085760539784e-14       1.919408401346e-11       2.404944191003e-12      -9.241669097897e-15 
   79       3.126685100454e-10       7.552737122277e-14      -1.866125489058e-12       1.090740341404e-14       1.860124645867e-11       2.341971928705e-12      -9.156163557318e-15 
   80       3.154279438870e-10       7.766169506064e-14      -1.938445183858e-12       1.095180275621e-14       1.803282032472e-11       2.281457837284e-12      -9.071254038911e-15 
   81       3.182297853686e-10       7.980743656694e-14      -2.011718446068e-12       1.099082673047e-14       1.748766055797e-11       2.223292741690e-12      -8.985544254310e-15 
   82       3.210736482358e-10       8.196299183986e-14      -2.085905844207e-12       1.102450764590e-14       1.696420453612e-11       2.167323990974e-12      -8.897452890318e-15 
   83       3.239584834236e-10       8.412670831154e-14      -2.160966662670e-12       1.105288693928e-14       1.646045520926e-11       2.113353681798e-12      -8.805207181768e-15 
   84       3.268832153168e-10       8.629689459125e-14      -2.236858807520e-12       1.107601145615e-14       1.597446617427e-11       2.061187862239e-12      -8.707343850564e-15 
   85       3.298488394502e-10       8.847185226805e-14      -2.313538484465e-12       1.109392131239e-14       1.550592622205e-11       2.010797406762e-12      -8.604321418279e-15 
   86       3.328566174947e-10       9.064984907145e-14      -2.390960485213e-12       1.110666023972e-14       1.505480778604e-11       1.962180677789e-12      -8.497164639742e-15 
   87       3.359074215849e-10       9.282910930207e-14      -2.469078294653e-12       1.111427930974e-14       1.462088006562e-11       1.915314010499e-12      -8.386982970805e-15 
   88       3.390017146148e-10       9.500781381827e-14      -2.547844098906e-12       1.111683699401e-14       1.420370060310e-11       1.870150793139e-12      -8.274972668366e-15 
   89       3.421395305341e-10       9.718410002281e-14      -2.627208793371e-12       1.111439922430e-14       1.380260686063e-11       1.826620547338e-12      -8.162418890394e-15 
   90       3.453204546439e-10       9.935606184953e-14      -2.707121990777e-12       1.110703945262e-14       1.341670779715e-11       1.784628008424e-12      -8.050697795946e-15 
   91       3.485436038926e-10       1.015217497500e-13      -2.787532029225e-12       1.109483871148e-14       1.304487544533e-11       1.744052205731e-12      -7.941278645188e-15 
   92       3.518076071724e-10       1.036791706801e-13      -2.868385980243e-12       1.107788567396e-14       1.268573648852e-11       1.704745542916e-12      -7.835725899421e-15 
   93       3.551111513581e-10       1.058263311673e-13      -2.949630183044e-12       1.105627223266e-14       1.233799786894e-11       1.666569703702e-12      -7.735386861437e-15 
   94       3.584547561667e-10       1.079613739506e-13      -3.031211921741e-12       1.103007934517e-14       1.200149792621e-11       1.629511544022e-12      -7.640396295981e-15 
   95       3.618392310483e-10       1.100824619619e-13      -3.113078016445e-12       1.099938916107e-14       1.167629851238e-11       1.593583010756e-12      -7.550525290276e-15 
   96       3.652651214492e-10       1.121877376473e-13      -3.195174334585e-12       1.096428931211e-14       1.136236126041e-11       1.558785460724e-12      -7.465480187856e-15 
   97       3.687326968738e-10       1.142753235449e-13      -3.277445806190e-12       1.092487291086e-14       1.105954374636e-11       1.525109246506e-12      -7.384900372044e-15 
   98       3.722419389464e-10       1.163433228627e-13      -3.359836439150e-12       1.088123854931e-14       1.076759565147e-11       1.492533302240e-12      -7.308356049444e-15 
   99       3.757925294729e-10       1.183898200569e-13      -3.442289334495e-12       1.083349029755e-14       1.048615492434e-11       1.461024729442e-12      -7.235346033419e-15 
  100       3.793838385029e-10       1.204128814099e-13      -3.524746701664e-12       1.078173770238e-14       1.021474394304e-11       1.430538382810e-12      -7.165295527581e-15 
  101       3.830149123912e-10       1.224105556079e-13      -3.607149873776e-12       1.072609578596e-14       9.952765677232e-12       1.401016456035e-12      -7.097553909278e-15 
  102       3.866844618602e-10       1.243808743195e-13      -3.689439322901e-12       1.066668504440e-14       9.699499850334e-12       1.372388067615e-12      -7.031392513071e-15 
  103       3.903908500610e-10       1.263218527732e-13      -3.771554675335e-12       1.060363144647e-14       9.454099101624e-12       1.344568846660e-12      -6.966002414229e-15 
  104       3.941325272335e-10       1.282315332845e-13      -3.853434880286e-12       1.053706190019e-14       9.215780949877e-12       1.317480638198e-12      -6.900658527317e-15 
  105       3.979094272681e-10       1.301081212870e-13      -3.935018709024e-12       1.046708995831e-14       8.984441483272e-12       1.291114542773e-12      -6.835241921961e-15 
  106       4.017217384213e-10       1.319498688404e-13      -4.016244351943e-12       1.039382817033e-14       8.760117801085e-12       1.265475660052e-12      -6.769784260578e-15 
  107       4.055694666185e-10       1.337550343596e-13      -4.097049287918e-12       1.031739239153e-14       8.542797949247e-12       1.240563539007e-12      -6.704307399743e-15 
