# dimensionless total lensed [l(l+1)/2pi] C_l's
# for l=2 to 2500, i.e. number of multipoles equal to 2499
#
# -> if you prefer output in CAMB/HealPix/LensPix units/order, set 'format' to 'camb' in input file
# -> if you don't want to see such a header, set 'headers' to 'no' in input file
# -> for CMB lensing (phi), these are C_l^phi-phi for the lensing potential.
#    Remember the conversion factors:
#    C_l^dd (deflection) = l(l+1) C_l^phi-phi
#    C_l^gg (shear/convergence) = 1/4 (l(l+1))^2 C_l^phi-phi
#
# 1:l     2:TT                     3:EE                     4:TE                     5:BB                     6:phiphi                 7:TPhi                   8:Ephi               
    2       2.856500771756e-10       7.947222609215e-15       5.666305078571e-13       4.885230853072e-15       8.378335892528e-09       4.684821602735e-10      -2.088008106217e-12 
    3       2.440665284143e-10       1.029700440370e-14       4.582091410578e-13       4.920890508064e-15       5.174940286974e-09       3.325410066197e-10      -1.672547943697e-12 
    4       2.250254881925e-10       9.855172503631e-15       3.918159882658e-13       4.280172764949e-15       3.597561588968e-09       2.519625586770e-10      -1.188872129101e-12 
    5       2.143470021944e-10       7.602822591240e-15       3.278900597905e-13       3.352897144875e-15       2.682666091189e-09       1.991120306767e-10      -7.568757438683e-13 
    6       2.073507571227e-10       4.998992331962e-15       2.646693648298e-13       2.432466966363e-15       2.094287091199e-09       1.621040961875e-10      -4.123573427016e-13 
    7       2.027930619104e-10       2.995596414449e-15       2.075886045741e-13       1.680533412386e-15       1.689284116702e-09       1.349372124682e-10      -1.642279304207e-13 
    8       1.998092711835e-10       1.842017750647e-15       1.602696743926e-13       1.151237706342e-15       1.396008997102e-09       1.142713000955e-10      -6.227307032636e-15 
    9       1.979642024338e-10       1.343504209257e-15       1.243728673261e-13       8.327321867003e-16       1.175559050328e-09       9.815926713222e-11       7.644608289735e-14 
   10       1.969242474326e-10       1.193682029666e-15       9.986543063336e-14       6.822545323518e-16       1.004929145030e-09       8.535840593801e-11       1.028084337897e-13 
   11       1.964091650009e-10       1.174341888395e-15       8.544639449383e-14       6.510694144099e-16       8.472170685257e-10       7.526207575610e-11       9.253588505469e-14 
   12       1.963392919724e-10       1.196974329501e-15       7.891315552594e-14       6.961731145090e-16       7.402150834499e-10       6.664079560907e-11       6.357112386184e-14 
   13       1.965545866532e-10       1.251269137019e-15       7.772708837115e-14       7.865586284406e-16       6.523850790719e-10       5.941288431215e-11       2.930880759293e-14 
   14       1.969753159729e-10       1.346812775815e-15       7.961277199564e-14       9.014771030589e-16       5.793071468382e-10       5.328893420843e-11      -1.008468797102e-15 
   15       1.975951970970e-10       1.482268488236e-15       8.273819589190e-14       1.029734119760e-15       5.178011515067e-10       4.812566637572e-11      -2.239780912108e-14 
   16       1.983452161310e-10       1.647128325538e-15       8.582404091810e-14       1.165474619081e-15       4.655108412036e-10       4.370584345930e-11      -3.364395816717e-14 
   17       1.992168474152e-10       1.832082241986e-15       8.819456190768e-14       1.306156462243e-15       4.206559814416e-10       3.981252298961e-11      -3.613951953290e-14 
   18       2.001673276946e-10       2.034948047349e-15       8.964895234532e-14       1.451291199807e-15       3.817245541589e-10       3.639467500359e-11      -3.248226570460e-14 
   19       2.012146479006e-10       2.259740244566e-15       9.036379304120e-14       1.600617972465e-15       3.480993305169e-10       3.340914235900e-11      -2.527085841150e-14 
   20       2.023016139591e-10       2.511750483323e-15       9.065216554747e-14       1.753955503197e-15       3.184853701663e-10       3.072987731720e-11      -1.759672558432e-14 
   21       2.034474677855e-10       2.792739237890e-15       9.073602007677e-14       1.911250239788e-15       2.924174543347e-10       2.835557204823e-11      -1.111321847552e-14 
   22       2.046389437493e-10       3.102601692826e-15       9.079574110673e-14       2.072553879854e-15       2.692714291168e-10       2.628204911572e-11      -6.942874354268e-15 
   23       2.058835153102e-10       3.440151826275e-15       9.087178399022e-14       2.237737314911e-15       2.487287136812e-10       2.445816152347e-11      -5.177936772544e-15 
   24       2.071557943898e-10       3.803591638585e-15       9.089878148511e-14       2.406632742419e-15       2.303141603983e-10       2.279436219861e-11      -5.406795337725e-15 
   25       2.084585345621e-10       4.192869934259e-15       9.062940923973e-14       2.578995318938e-15       2.138113196578e-10       2.126267448521e-11      -7.043593806895e-15 
   26       2.097774117473e-10       4.608355096721e-15       8.972401463009e-14       2.754582344214e-15       1.989218198750e-10       1.984574363006e-11      -9.309203940140e-15 
   27       2.111249229303e-10       5.050412322231e-15       8.794340912312e-14       2.933227695714e-15       1.854672749259e-10       1.856039482295e-11      -1.147771896718e-14 
   28       2.125027007642e-10       5.519428558170e-15       8.507412787204e-14       3.114791326718e-15       1.732158751195e-10       1.742136441483e-11      -1.286397009308e-14 
   29       2.139224200769e-10       6.016285807005e-15       8.099655701813e-14       3.299044235652e-15       1.621048394320e-10       1.641276842947e-11      -1.337656501619e-14 
   30       2.153741791875e-10       6.542051917765e-15       7.561700527507e-14       3.485732193305e-15       1.520144551877e-10       1.549365124537e-11      -1.314838153661e-14 
   31       2.168287830707e-10       7.097825952151e-15       6.886583372495e-14       3.674607195152e-15       1.427385066226e-10       1.461606816970e-11      -1.237239828593e-14 
   32       2.182969267464e-10       7.684642091692e-15       6.079017368514e-14       3.865444902625e-15       1.342291708557e-10       1.378313874146e-11      -1.125660335393e-14 
   33       2.197873681718e-10       8.303531433559e-15       5.149995009303e-14       4.058034621190e-15       1.264265441915e-10       1.301146760050e-11      -1.006146565044e-14 
   34       2.212951997446e-10       8.955488886147e-15       4.110991375110e-14       4.252166747313e-15       1.192217062790e-10       1.231242373497e-11      -9.057913279376e-15 
   35       2.228226686962e-10       9.641270961870e-15       2.961109025107e-14       4.447602593950e-15       1.125777628026e-10       1.168042483232e-11      -8.323093572257e-15 
   36       2.243623336007e-10       1.036152050118e-14       1.695474461734e-14       4.644093994782e-15       1.064412913958e-10       1.109955041071e-11      -7.874402184942e-15 
   37       2.258996369317e-10       1.111681664179e-14       3.087335450088e-15       4.841388008907e-15       1.007323041203e-10       1.055162180410e-11      -7.709238722468e-15 
   38       2.274466826306e-10       1.190768203706e-14      -1.204333588027e-14       5.039216560551e-15       9.543602820325e-11       1.003564771572e-11      -7.759357078340e-15 
   39       2.290175224444e-10       1.273456912320e-14      -2.849324140576e-14       5.237302716956e-15       9.053566894968e-11       9.554200419552e-12      -7.918955632878e-15 
   40       2.306179064073e-10       1.359785156748e-14      -4.632445695001e-14       5.435362851862e-15       8.598449576094e-11       9.107969596140e-12      -8.054532512912e-15 
   41       2.322470084276e-10       1.449787200147e-14      -6.559693556445e-14       5.633117126970e-15       8.172212017495e-11       8.695803836422e-12      -8.040635987280e-15 
   42       2.339055499020e-10       1.543511632848e-14      -8.633932786570e-14       5.830326177571e-15       7.773598030882e-11       8.315303377231e-12      -7.885530092648e-15 
   43       2.355887303463e-10       1.641008746350e-14      -1.085695583464e-13       6.026765572838e-15       7.401547657044e-11       7.962103862443e-12      -7.643344355247e-15 
   44       2.372830378808e-10       1.742325582954e-14      -1.323026954340e-13       6.222216166688e-15       7.053352116512e-11       7.629494378717e-12      -7.380749366566e-15 
   45       2.389731025658e-10       1.847503197662e-14      -1.575485871029e-13       6.416450506495e-15       6.725620988038e-11       7.310432474623e-12      -7.163023002868e-15 
   46       2.406664942273e-10       1.956567830969e-14      -1.843040951079e-13       6.609186561402e-15       6.417837826087e-11       7.004713280734e-12      -7.005518209605e-15 
   47       2.423750428022e-10       2.069536834880e-14      -2.125584161526e-13       6.800120631572e-15       6.129644281490e-11       6.713650822304e-12      -6.908958905671e-15 
   48       2.441075524763e-10       2.186420732673e-14      -2.422949734693e-13       6.988939507130e-15       5.859767742864e-11       6.438031911232e-12      -6.872767726220e-15 
   49       2.458694786975e-10       2.307222915945e-14      -2.734912125408e-13       7.175319946356e-15       5.605953351816e-11       6.178069947605e-12      -6.894968777968e-15 
   50       2.476633611479e-10       2.431937268082e-14      -3.061252360762e-13       7.358951696297e-15       5.365642952647e-11       5.933497051212e-12      -6.971588135452e-15 
   51       2.494910105442e-10       2.560540977058e-14      -3.401983060581e-13       7.539615131776e-15       5.138386930095e-11       5.703977118614e-12      -7.094889096346e-15 
   52       2.513513571166e-10       2.692999248073e-14      -3.757180965136e-13       7.717123788638e-15       4.923969521807e-11       5.488725028874e-12      -7.254489812718e-15 
   53       2.532394659332e-10       2.829266815588e-14      -4.126925028754e-13       7.891303235408e-15       4.721687046169e-11       5.286339365675e-12      -7.437705670696e-15 
   54       2.551462494880e-10       2.969287542791e-14      -4.511297595505e-13       8.061991659361e-15       4.530315067377e-11       5.094762728506e-12      -7.629428410045e-15 
   55       2.570623911144e-10       3.113003734746e-14      -4.910362528382e-13       8.229033712629e-15       4.348481737192e-11       4.911849408780e-12      -7.815440745215e-15 
   56       2.589919150204e-10       3.260387704727e-14      -5.324090541026e-13       8.392258917670e-15       4.175971650567e-11       4.737324483799e-12      -7.993601407954e-15 
   57       2.609414839156e-10       3.411417348077e-14      -5.752417376104e-13       8.551498923802e-15       4.012688382789e-11       4.571241885712e-12      -8.165226977845e-15 
   58       2.629163628685e-10       3.566067093960e-14      -6.195265498367e-13       8.706594093598e-15       3.858260051783e-11       4.413404000146e-12      -8.331912513229e-15 
   59       2.649202959525e-10       3.724307883290e-14      -6.652544372418e-13       8.857393826362e-15       3.712022308252e-11       4.263345640961e-12      -8.495544521491e-15 
   60       2.669553828908e-10       3.886107146645e-14      -7.124150740484e-13       9.003756881601e-15       3.573001325803e-11       4.120318025003e-12      -8.658313929342e-15 
   61       2.690228046102e-10       4.051424890265e-14      -7.609974496845e-13       9.145554577562e-15       3.440184105816e-11       3.983518536449e-12      -8.821762479334e-15 
   62       2.711254692759e-10       4.220200977343e-14      -8.109917223578e-13       9.282680493993e-15       3.313438773014e-11       3.852876539752e-12      -8.983642451313e-15 
   63       2.732657439955e-10       4.392364939712e-14      -8.623878327201e-13       9.415043531191e-15       3.192771605891e-11       3.728416316481e-12      -9.140371879888e-15 
   64       2.754445638109e-10       4.567839475171e-14      -9.151750255471e-13       9.542565633620e-15       3.078050212897e-11       3.610018776616e-12      -9.287921581374e-15 
   65       2.776613352790e-10       4.746540301916e-14      -9.693418952729e-13       9.665182204602e-15       2.968995638842e-11       3.497413232010e-12      -9.421797455417e-15 
   66       2.799138400518e-10       4.928376012976e-14      -1.024876431525e-12       9.782842521021e-15       2.865174471310e-11       3.390169169868e-12      -9.537022786623e-15 
   67       2.821981384576e-10       5.113247930642e-14      -1.081766064659e-12       9.895510148023e-15       2.765990947074e-11       3.287688026215e-12      -9.628120546183e-15 
   68       2.845103440399e-10       5.301050751630e-14      -1.139996215676e-12       1.000315235062e-14       2.670845962462e-11       3.189362222843e-12      -9.690447853404e-15 
   69       2.868525802387e-10       5.491674959730e-14      -1.199545503006e-12       1.010570491019e-14       2.579669163174e-11       3.095108087338e-12      -9.724552912301e-15 
   70       2.892280630232e-10       5.685004642767e-14      -1.260389641828e-12       1.020310089107e-14       2.492480984858e-11       3.004926634335e-12      -9.732673167196e-15 
   71       2.916392890286e-10       5.880916622030e-14      -1.322502860909e-12       1.029528114384e-14       2.409231728658e-11       2.918741978483e-12      -9.717477836251e-15 
   72       2.940879869873e-10       6.079280326931e-14      -1.385857909886e-12       1.038219443853e-14       2.329797936266e-11       2.836397385755e-12      -9.682084795193e-15 
   73       2.965750691599e-10       6.279957669662e-14      -1.450426066550e-12       1.046379759799e-14       2.253978764977e-11       2.757651324756e-12      -9.630077461034e-15 
   74       2.991005827665e-10       6.482802919848e-14      -1.516177144130e-12       1.054005563110e-14       2.181492362746e-11       2.682173518033e-12      -9.565521675794e-15 
   75       3.016636614181e-10       6.687662579205e-14      -1.583079498574e-12       1.061094186613e-14       2.111972243241e-11       2.609540993384e-12      -9.492982590224e-15 
   76       3.042633403082e-10       6.894381368907e-14      -1.651100619536e-12       1.067643805890e-14       2.045058200987e-11       2.539344393762e-12      -9.416648075994e-15 
   77       3.069012807717e-10       7.102821729257e-14      -1.720209011633e-12       1.073653444544e-14       1.980696209860e-11       2.471538016704e-12      -9.337477095552e-15 
   78       3.095794566307e-10       7.312847664671e-14      -1.790372671074e-12       1.079122994116e-14       1.918886880816e-11       2.406146728864e-12      -9.255559582105e-15 
   79       3.122993041534e-10       7.524318946423e-14      -1.861558551328e-12       1.084053229743e-14       1.859594114344e-11       2.343159709712e-12      -9.170962364771e-15 
   80       3.150616911969e-10       7.737091112649e-14      -1.933732582384e-12       1.088445823430e-14       1.802743414143e-11       2.282528763780e-12      -9.083727730941e-15 
   81       3.178668863506e-10       7.951015468347e-14      -2.006859690000e-12       1.092303357337e-14       1.748220200796e-11       2.224166632914e-12      -8.993871988644e-15 
   82       3.207145280798e-10       8.165939085378e-14      -2.080903814955e-12       1.095629337046e-14       1.695868125448e-11       2.167945308526e-12      -8.901384028915e-15 
   83       3.236035938684e-10       8.381704802473e-14      -2.155827932307e-12       1.098428204850e-14       1.645487383482e-11       2.113694343846e-12      -8.806223888156e-15 
   84       3.265330175168e-10       8.598150510012e-14      -2.231593151933e-12       1.100704901402e-14       1.596883240747e-11       2.061245207282e-12      -8.708405666472e-15 
   85       3.295037262031e-10       8.815106868141e-14      -2.308155806671e-12       1.102463438129e-14       1.550024549192e-11       2.010576487757e-12      -8.608265225757e-15 
   86       3.325168861194e-10       9.032399208615e-14      -2.385469914512e-12       1.103708111402e-14       1.504908540157e-11       1.961689778857e-12      -8.506234440784e-15 
   87       3.355732646740e-10       9.249848204539e-14      -2.463488058139e-12       1.104443938713e-14       1.461512118282e-11       1.914564877520e-12      -8.402760769411e-15 
   88       3.386732105286e-10       9.467269858350e-14      -2.542161388745e-12       1.104676664363e-14       1.419791019097e-11       1.869158870082e-12      -8.298307232696e-15 
   89       3.418166336346e-10       9.684475489800e-14      -2.621439629842e-12       1.104412765153e-14       1.379678966600e-11       1.825405218329e-12      -8.193352395009e-15 
   90       3.450029852702e-10       9.901271723936e-14      -2.701271081072e-12       1.103659456066e-14       1.341086830846e-11       1.783212845548e-12      -8.088390344138e-15 
   91       3.482312380762e-10       1.011746047908e-13      -2.781602622024e-12       1.102424695956e-14       1.303901785529e-11       1.742465222580e-12      -7.983930671412e-15 
   92       3.514998660938e-10       1.033283895482e-13      -2.862379716043e-12       1.100717193238e-14       1.267986465570e-11       1.703019453870e-12      -7.880498451801e-15 
   93       3.548074274105e-10       1.054720485820e-13      -2.943547367135e-12       1.098545996231e-14       1.233211533281e-11       1.664740920665e-12      -7.778587182498e-15 
   94       3.581544557025e-10       1.076037300760e-13      -3.025053147041e-12       1.095919181365e-14       1.199560809418e-11       1.627615155882e-12      -7.678509545230e-15 
   95       3.615418175943e-10       1.097216121549e-13      -3.106844632598e-12       1.092844977280e-14       1.167040469878e-11       1.591651183722e-12      -7.580524057373e-15 
   96       3.649701238620e-10       1.118238533179e-13      -3.188868509888e-12       1.089332162572e-14       1.135646667294e-11       1.556847041594e-12      -7.484879456870e-15 
   97       3.684397177423e-10       1.139085930377e-13      -3.271070591129e-12       1.085390065779e-14       1.105365147212e-11       1.523189354251e-12      -7.391814036614e-15 
   98       3.719506632407e-10       1.159739523589e-13      -3.353395831573e-12       1.081028565370e-14       1.076170864272e-11       1.490652907932e-12      -7.301554978822e-15 
   99       3.755027334404e-10       1.180180344976e-13      -3.435788346399e-12       1.076258089727e-14       1.048027598385e-11       1.459200224499e-12      -7.214317689422e-15 
  100       3.790953988106e-10       1.200389254397e-13      -3.518191427609e-12       1.071089617134e-14       1.020887570912e-11       1.428781135574e-12      -7.130305132430e-15 
  101       3.827278155155e-10       1.220346945398e-13      -3.600547560925e-12       1.065534675763e-14       9.946910608426e-12       1.399332356678e-12      -7.049707164335e-15 
  102       3.863988137223e-10       1.240033951203e-13      -3.682798442682e-12       1.059605343659e-14       9.693660209767e-12       1.370777061370e-12      -6.972699868472e-15 
  103       3.901068859104e-10       1.259430650703e-13      -3.764884996723e-12       1.053314248724e-14       9.448276940990e-12       1.343024455384e-12      -6.899444889413e-15 
  104       3.938505920573e-10       1.278517668962e-13      -3.846747302431e-12       1.046674099119e-14       9.209978121131e-12       1.315990925663e-12      -6.830024227363e-15 
  105       3.976298627143e-10       1.297277127478e-13      -3.928324331339e-12       1.039696202237e-14       8.978659738403e-12       1.289667658398e-12      -6.764236023398e-15 
  106       4.014448509806e-10       1.315691574767e-13      -4.009554206274e-12       1.032391744709e-14       8.754358815120e-12       1.264061403795e-12      -6.701769818462e-15 
  107       4.052955243203e-10       1.333743617121e-13      -4.090374302767e-12       1.024772239009e-14       8.537063316239e-12       1.239173530355e-12      -6.642267271652e-15 
