# dimensionless total lensed [l(l+1)/2pi] C_l's
# for l=2 to 2500, i.e. number of multipoles equal to 2499
#
# -> if you prefer output in CAMB/HealPix/LensPix units/order, set 'format' to 'camb' in input file
# -> if you don't want to see such a header, set 'headers' to 'no' in input file
# -> for CMB lensing (phi), these are C_l^phi-phi for the lensing potential.
#    Remember the conversion factors:
#    C_l^dd (deflection) = l(l+1) C_l^phi-phi
#    C_l^gg (shear/convergence) = 1/4 (l(l+1))^2 C_l^phi-phi
#
# 1:l     2:TT                     3:EE                     4:TE                     5:BB                     6:phiphi                 7:TPhi                   8:Ephi               
    2       2.865956355996e-10       7.887690743847e-15       5.644418210831e-13       4.852152831118e-15       8.375751427785e-09       4.723422000915e-10      -2.078004808191e-12 
    3       2.447272673565e-10       1.020538263455e-14       4.559187522483e-13       4.883649997960e-15       5.150505810693e-09       3.349493242211e-10      -1.663874117397e-12 
    4       2.256174369499e-10       9.753776635452e-15       3.898849768596e-13       4.244256800108e-15       3.577646666625e-09       2.537722153529e-10      -1.181421794170e-12 
    5       2.148577482725e-10       7.513337967987e-15       3.262435172005e-13       3.322119470168e-15       2.668915659854e-09       2.005052441822e-10      -7.507426402455e-13 
    6       2.078075179495e-10       4.933934626490e-15       2.632983618984e-13       2.408654468781e-15       2.084074117934e-09       1.631355891734e-10      -4.076612773326e-13 
    7       2.031867762401e-10       2.956061504338e-15       2.065151036580e-13       1.663769939246e-15       1.681013478363e-09       1.357477826875e-10      -1.609304581244e-13 
    8       2.002128625968e-10       1.821507021555e-15       1.594908667626e-13       1.140741163527e-15       1.389159242637e-09       1.149829359928e-10      -4.201318654718e-15 
    9       1.983369500561e-10       1.334015164820e-15       1.238973913593e-13       8.269863650079e-16       1.169598690663e-09       9.876338990648e-11       7.741629173143e-14 
   10       1.972739431477e-10       1.188944683881e-15       9.963765898368e-14       6.800390527230e-16       9.994372263082e-10       8.582173833504e-11       1.030089824074e-13 
   11       1.967738669961e-10       1.171496952438e-15       8.530950714006e-14       6.510456542508e-16       8.431774006348e-10       7.565188018664e-11       9.227644938390e-14 
   12       1.966421389965e-10       1.194992332150e-15       7.881660770709e-14       6.976554804543e-16       7.366447055668e-10       6.703625156430e-11       6.319530948457e-14 
   13       1.968711926433e-10       1.250260143300e-15       7.769979128092e-14       7.888837402072e-16       6.491913264230e-10       5.969277747076e-11       2.884638094987e-14 
   14       1.973079414830e-10       1.346796298453e-15       7.957086987621e-14       9.043607341526e-16       5.764341652923e-10       5.361354695452e-11      -1.199422189621e-15 
   15       1.978984768226e-10       1.482987860899e-15       8.264370472040e-14       1.033156815120e-15       5.152048224432e-10       4.844780604304e-11      -2.232502201062e-14 
   16       1.986602528529e-10       1.648624086969e-15       8.569130416593e-14       1.169140779150e-15       4.631485024649e-10       4.387788563369e-11      -3.356453526378e-14 
   17       1.995196880427e-10       1.834041756760e-15       8.798536854748e-14       1.310375696663e-15       4.184939528282e-10       3.995716942819e-11      -3.590617070440e-14 
   18       2.004632267365e-10       2.037667350498e-15       8.943430059394e-14       1.455978518443e-15       3.797388454758e-10       3.652880116118e-11      -3.212906894427e-14 
   19       2.015137653683e-10       2.263511477851e-15       9.017919385612e-14       1.605669803444e-15       3.462677133061e-10       3.352543841570e-11      -2.490699832948e-14 
   20       2.025978895371e-10       2.516531938450e-15       9.043701848987e-14       1.759493356469e-15       3.167909553298e-10       3.086075024473e-11      -1.729212528792e-14 
   21       2.037434140700e-10       2.798440336494e-15       9.047063897755e-14       1.917351698637e-15       2.908450391535e-10       2.850269543414e-11      -1.090163242971e-14 
   22       2.049505401185e-10       3.109178760194e-15       9.053840539471e-14       2.079168112711e-15       2.678083159381e-10       2.639780863508e-11      -6.823332990731e-15 
   23       2.062114071983e-10       3.447555582719e-15       9.064356565777e-14       2.244825030501e-15       2.473636622852e-10       2.451497205932e-11      -5.155667081926e-15 
   24       2.074799257673e-10       3.811757925158e-15       9.065300667272e-14       2.414218517192e-15       2.290381409127e-10       2.281130339622e-11      -5.489129358327e-15 
   25       2.087758811087e-10       4.201752249177e-15       9.034163198504e-14       2.587152775897e-15       2.126156694306e-10       2.128996674893e-11      -7.144267859074e-15 
   26       2.101098037632e-10       4.617936938541e-15       8.941259780643e-14       2.763416855567e-15       1.977985521396e-10       1.994584705393e-11      -9.253743956133e-15 
   27       2.114798278372e-10       5.060684947060e-15       8.759637046151e-14       2.942790428407e-15       1.844095495315e-10       1.872914878441e-11      -1.124540979698e-14 
   28       2.128631488960e-10       5.530387080804e-15       8.463453034567e-14       3.125058363442e-15       1.722185456338e-10       1.757322233721e-11      -1.264111812866e-14 
   29       2.142740510922e-10       6.027936699314e-15       8.043169621270e-14       3.309998634695e-15       1.611630051345e-10       1.648449632257e-11      -1.330674638734e-14 
   30       2.157159327452e-10       6.554418630524e-15       7.494930995296e-14       3.497396264736e-15       1.511235046416e-10       1.548833567772e-11      -1.322902751867e-14 
   31       2.171723589001e-10       7.110946072821e-15       6.816805638283e-14       3.687041815394e-15       1.418945453290e-10       1.460107193632e-11      -1.245788559105e-14 
   32       2.186502814269e-10       7.698537037515e-15       6.010957254669e-14       3.878704555667e-15       1.334285346129e-10       1.381152168307e-11      -1.122607851473e-14 
   33       2.201480283019e-10       8.318192763787e-15       5.082576387489e-14       4.072149784412e-15       1.256659727062e-10       1.309054302959e-11      -9.885021269180e-15 
   34       2.216515472890e-10       8.970885782325e-15       4.037758263912e-14       4.267137551813e-15       1.184985764455e-10       1.240500124803e-11      -8.796521141664e-15 
   35       2.231693134926e-10       9.657408362752e-15       2.877436323354e-14       4.463393702377e-15       1.118895496208e-10       1.175423370403e-11      -8.039499278104e-15 
   36       2.247064857573e-10       1.037846526531e-14       1.601417721864e-14       4.660627878597e-15       1.057855797424e-10       1.114547068190e-11      -7.601962486687e-15 
   37       2.262597948900e-10       1.113468958515e-14       2.087534575687e-15       4.858555871869e-15       1.001069306275e-10       1.058329482227e-11      -7.452018154736e-15 
   38       2.278370154952e-10       1.192657545822e-14      -1.306509643841e-14       5.056952526086e-15       9.483889273518e-11       1.006727876551e-11      -7.521107943766e-15 
   39       2.294417681213e-10       1.275451375131e-14      -2.952582997458e-14       5.255616593113e-15       8.996479712608e-11       9.593080913402e-12      -7.712525643876e-15 
   40       2.310668947831e-10       1.361880228554e-14      -4.738919842319e-14       5.454357361444e-15       8.543820874342e-11       9.152686041800e-12      -7.903682573907e-15 
   41       2.327002978813e-10       1.451971802560e-14      -6.674431835548e-14       5.652975298382e-15       8.119910012897e-11       8.736914036059e-12      -7.976791646429e-15 
   42       2.343473959518e-10       1.545777651445e-14      -8.761214808466e-14       5.851194926671e-15       7.723494673644e-11       8.344664002957e-12      -7.927086402732e-15 
   43       2.360141205001e-10       1.643354666849e-14      -1.099893862641e-13       6.048711126879e-15       7.353514982226e-11       7.976164318119e-12      -7.786922750232e-15 
   44       2.376999895139e-10       1.744757912085e-14      -1.338651374151e-13       6.245206474091e-15       7.007270042146e-11       7.630307099983e-12      -7.596898990728e-15 
   45       2.394012426736e-10       1.850035040320e-14      -1.592249376639e-13       6.440364403968e-15       6.681381343024e-11       7.305222214695e-12      -7.399298923459e-15 
   46       2.411228423448e-10       1.959207726759e-14      -1.860650998786e-13       6.633915198578e-15       6.375334189746e-11       7.000468992566e-12      -7.214896818367e-15 
   47       2.428689937793e-10       2.072284564430e-14      -2.143820560590e-13       6.825602453608e-15       6.088772876722e-11       6.715308411218e-12      -7.060074707932e-15 
   48       2.446392946147e-10       2.189265714560e-14      -2.441682519942e-13       7.015170384372e-15       5.820432767942e-11       6.448002439304e-12      -6.953375353760e-15 
   49       2.464283245007e-10       2.310142518080e-14      -2.754120460867e-13       7.202363866653e-15       5.568072708358e-11       6.195741089483e-12      -6.915599236663e-15 
   50       2.482291766916e-10       2.434899372010e-14      -3.081016480718e-13       7.386931415330e-15       5.329149788205e-11       5.955479098140e-12      -6.963216811525e-15 
   51       2.500461350003e-10       2.563520860334e-14      -3.422384303000e-13       7.568634978672e-15       5.103216366113e-11       5.726882939144e-12      -7.086272176540e-15 
   52       2.518847285040e-10       2.695985887190e-14      -3.778270547617e-13       7.747242873188e-15       4.890056859754e-11       5.510057650254e-12      -7.264649258051e-15 
   53       2.537478707898e-10       2.832265305952e-14      -4.148718358109e-13       7.922527253043e-15       4.688970380066e-11       5.304677695149e-12      -7.474019910006e-15 
   54       2.556356350851e-10       2.972321637321e-14      -4.533768291019e-13       8.094264289145e-15       4.498738076893e-11       5.109956822372e-12      -7.685626328260e-15 
   55       2.575469245825e-10       3.116112994680e-14      -4.933449801366e-13       8.262244275085e-15       4.317994530215e-11       4.924926611213e-12      -7.872897287583e-15 
   56       2.594854844806e-10       3.263606647916e-14      -5.347751184715e-13       8.426304474595e-15       4.146524773095e-11       4.749422191341e-12      -8.033720045275e-15 
   57       2.614549895865e-10       3.414768335357e-14      -5.776643725852e-13       8.586304747793e-15       3.984232280400e-11       4.583288602651e-12      -8.173320138091e-15 
   58       2.634571322308e-10       3.569558236308e-14      -6.220090960039e-13       8.742118892795e-15       3.830746608912e-11       4.426075842641e-12      -8.297959919304e-15 
   59       2.654914712370e-10       3.727930853060e-14      -6.678049195981e-13       8.893635211567e-15       3.685406485004e-11       4.277020752113e-12      -8.414987225830e-15 
   60       2.675552808903e-10       3.889834892902e-14      -7.150468038801e-13       9.040757075773e-15       3.547242892311e-11       4.135028900871e-12      -8.532884045356e-15 
   61       2.696453747393e-10       4.055214052456e-14      -7.637281021059e-13       9.183395099726e-15       3.415247946673e-11       3.998976418863e-12      -8.659172852675e-15 
   62       2.717643970500e-10       4.224009843339e-14      -8.138373855238e-13       9.321440326132e-15       3.289290306185e-11       3.868735638304e-12      -8.793476361591e-15 
   63       2.739156819559e-10       4.396159194262e-14      -8.653609950780e-13       9.454785998318e-15       3.169376158641e-11       3.744348571503e-12      -8.932979230940e-15 
   64       2.761013166189e-10       4.571593517086e-14      -9.182839882194e-13       9.583335715642e-15       3.055373876517e-11       3.625719475203e-12      -9.074414005999e-15 
   65       2.783220528585e-10       4.750238617466e-14      -9.725901598161e-13       9.707003733039e-15       2.947006172458e-11       3.512606887905e-12      -9.214041811077e-15 
   66       2.805772187810e-10       4.932014605486e-14      -1.028262063065e-12       9.825715260571e-15       2.843842254766e-11       3.404615667201e-12      -9.347633042107e-15 
   67       2.828646304080e-10       5.116835806305e-14      -1.085281030401e-12       9.939406762979e-15       2.745289982886e-11       3.301189027102e-12      -9.470448059240e-15 
   68       2.851819801341e-10       5.304608464935e-14      -1.143627109434e-12       1.004802133060e-14       2.650753873154e-11       3.201764003082e-12      -9.578010985219e-15 
   69       2.875315263298e-10       5.495223520258e-14      -1.203278808929e-12       1.015149303335e-14       2.560163828639e-11       3.106292226146e-12      -9.668656328462e-15 
   70       2.899161995881e-10       5.688562199581e-14      -1.264213338685e-12       1.024975992001e-14       2.473539943909e-11       3.014810851649e-12      -9.741466059078e-15 
   71       2.923381602794e-10       5.884497951787e-14      -1.326406708357e-12       1.034276883672e-14       2.390832595770e-11       2.927284753052e-12      -9.795523118789e-15 
   72       2.947987479515e-10       6.082896301559e-14      -1.389833746191e-12       1.043047560049e-14       2.311918840447e-11       2.843602738990e-12      -9.829912397560e-15 
   73       2.972984307286e-10       6.283614703606e-14      -1.454468117768e-12       1.051284517269e-14       2.236598810770e-11       2.763573770333e-12      -9.843721710225e-15 
   74       2.998367547115e-10       6.486502396887e-14      -1.520282344735e-12       1.058985183257e-14       2.164592113352e-11       2.686923177256e-12      -9.836042773117e-15 
   75       3.024122933765e-10       6.691400258840e-14      -1.587247823547e-12       1.066147935072e-14       2.095534225777e-11       2.613288876302e-12      -9.805972180691e-15 
   76       3.050235835094e-10       6.898147838547e-14      -1.655334718960e-12       1.072771867310e-14       2.029066895568e-11       2.542313041986e-12      -9.753042050079e-15 
   77       3.076722418974e-10       7.106606259158e-14      -1.724511580683e-12       1.078856010197e-14       1.965136332600e-11       2.473944783172e-12      -9.678600457880e-15 
   78       3.103603276909e-10       7.316639246396e-14      -1.794745690540e-12       1.084399999769e-14       1.903743100559e-11       2.408186044799e-12      -9.584685676542e-15 
   79       3.130893764095e-10       7.528106321526e-14      -1.866003197415e-12       1.089404326220e-14       1.844851290995e-11       2.344999253835e-12      -9.473628467329e-15 
   80       3.158603695723e-10       7.740862802790e-14      -1.938249133424e-12       1.093870346145e-14       1.788386848092e-11       2.284305493716e-12      -9.348061867636e-15 
   81       3.186737043262e-10       7.954759806844e-14      -2.011447430082e-12       1.097800294786e-14       1.734235893429e-11       2.225982678786e-12      -9.210930978302e-15 
   82       3.215291630757e-10       8.169644250190e-14      -2.085560934475e-12       1.101197298278e-14       1.682243050750e-11       2.169863728731e-12      -9.065502750930e-15 
   83       3.244258831123e-10       8.385358850616e-14      -2.160551425428e-12       1.104065385890e-14       1.632209770725e-11       2.115734743021e-12      -8.915375775204e-15 
   84       3.273629454295e-10       8.601741427153e-14      -2.236378925124e-12       1.106409124919e-14       1.583942533133e-11       2.063388471411e-12      -8.763999236396e-15 
   85       3.303413198521e-10       8.818622663488e-14      -2.312999467420e-12       1.108232428991e-14       1.537410304326e-11       2.012798909151e-12      -8.613116721876e-15 
   86       3.333621881847e-10       9.035827974681e-14      -2.390366987492e-12       1.109539573730e-14       1.492610232784e-11       1.963972433464e-12      -8.464081175751e-15 
   87       3.364263340252e-10       9.253178165468e-14      -2.468433997754e-12       1.110335562367e-14       1.449519267940e-11       1.916894197943e-12      -8.318324306362e-15 
   88       3.395341228011e-10       9.470489419911e-14      -2.547151592189e-12       1.110626131642e-14       1.408093323226e-11       1.871527236334e-12      -8.177358124362e-15 
   89       3.426854818051e-10       9.687573291043e-14      -2.626469450672e-12       1.110417757703e-14       1.368266439109e-11       1.827811566322e-12      -8.042776480788e-15 
   90       3.458798802306e-10       9.904236690509e-14      -2.706335843302e-12       1.109717662015e-14       1.329949946137e-11       1.785663293310e-12      -7.916256605140e-15 
   91       3.491163092079e-10       1.012028187822e-13      -2.786697634731e-12       1.108533817256e-14       1.293031627975e-11       1.744973714211e-12      -7.799560643457e-15 
   92       3.523932618394e-10       1.033550645199e-13      -2.867500288488e-12       1.106874953227e-14       1.257374884452e-11       1.705608421223e-12      -7.694537196392e-15 
   93       3.557093089505e-10       1.054970848532e-13      -2.948688789409e-12       1.104750133850e-14       1.222851104664e-11       1.667439426975e-12      -7.602618262646e-15 
   94       3.590649687576e-10       1.076270284716e-13      -3.030210560206e-12       1.102167402594e-14       1.189444173777e-11       1.630449013475e-12      -7.523220181132e-15 
   95       3.624610827942e-10       1.097430732890e-13      -3.112012993591e-12       1.099134943290e-14       1.157160209738e-11       1.594639917711e-12      -7.455103915097e-15 
   96       3.658982336234e-10       1.118433777447e-13      -3.194042589969e-12       1.095661490888e-14       1.125995377717e-11       1.560003264965e-12      -7.396852901676e-15 
   97       3.693767330503e-10       1.139260814063e-13      -3.276244974370e-12       1.091756331478e-14       1.095935509016e-11       1.526518125880e-12      -7.346867663485e-15 
   98       3.728966103353e-10       1.159893055732e-13      -3.358564913375e-12       1.087429302298e-14       1.066955719981e-11       1.494151073516e-12      -7.303360420205e-15 
   99       3.764576004072e-10       1.180311538791e-13      -3.440946332053e-12       1.082690791755e-14       1.039020030910e-11       1.462855740420e-12      -7.264349700175e-15 
  100       3.800591320759e-10       1.200497128957e-13      -3.523332330885e-12       1.077551739441e-14       1.012080984965e-11       1.432572375681e-12      -7.227654951978e-15 
  101       3.837003162457e-10       1.220430527357e-13      -3.605665202702e-12       1.072023636143e-14       9.860792670830e-12       1.403227401999e-12      -7.190891156026e-15 
  102       3.873799341284e-10       1.240092276558e-13      -3.687886449608e-12       1.066118523861e-14       9.609433228841e-12       1.374732972745e-12      -7.151463436153e-15 
  103       3.910964254559e-10       1.259462766599e-13      -3.769936799919e-12       1.059848995825e-14       9.365889775838e-12       1.346986529022e-12      -7.106561671201e-15 
  104       3.948483069814e-10       1.278522633526e-13      -3.851756165815e-12       1.053227730581e-14       9.129384973889e-12       1.319895108448e-12      -7.053797970656e-15 
  105       3.986355177529e-10       1.297254003316e-13      -3.933283473345e-12       1.046266022537e-14       8.899815270184e-12       1.293452965339e-12      -6.993228780532e-15 
  106       4.024582344384e-10       1.315639428014e-13      -4.014456840914e-12       1.038975052018e-14       8.677217118149e-12       1.267673658928e-12      -6.925597160607e-15 
  107       4.063164502921e-10       1.333661518457e-13      -4.095213652592e-12       1.031366328430e-14       8.461578249273e-12       1.242566069100e-12      -6.851715968716e-15 
