# dimensionless [l(l+1)/2pi] C_l's for scalar mode
# for l=2 to 5500, i.e. number of multipoles equal to 5499
#
# -> if you prefer output in CAMB/HealPix/LensPix units/order, set 'format' to 'camb' in input file
# -> if you don't want to see such a header, set 'headers' to 'no' in input file
# -> for CMB lensing (phi), these are C_l^phi-phi for the lensing potential.
#    Remember the conversion factors:
#    C_l^dd (deflection) = l(l+1) C_l^phi-phi
#    C_l^gg (shear/convergence) = 1/4 (l(l+1))^2 C_l^phi-phi
#
# 1:l     2:TT                     3:EE                     4:TE                     5:BB                     6:phiphi                 7:TPhi                   8:Ephi               
    2       1.434943043979e-10       5.120291093349e-15       3.941760297831e-13       0.000000000000e+00       8.295498801940e-09       4.690125736251e-10      -2.069992069650e-12 
    3       1.352938619699e-10       7.273239688918e-15       4.621053155379e-13       0.000000000000e+00       5.166338332381e-09       3.332179087805e-10      -1.657372396852e-12 
    4       1.274945387714e-10       7.071793918888e-15       4.487968783329e-13       0.000000000000e+00       3.599552271913e-09       2.524019052937e-10      -1.177779984891e-12 
    5       1.215505744074e-10       5.382718417682e-15       3.964198664522e-13       0.000000000000e+00       2.687554421153e-09       1.994440045480e-10      -7.495390055027e-13 
    6       1.173523994286e-10       3.408456866229e-15       3.303417689288e-13       0.000000000000e+00       2.097867800586e-09       1.623479439849e-10      -4.080360038384e-13 
    7       1.145553258378e-10       1.922480284493e-15       2.662179883044e-13       0.000000000000e+00       1.690585386187e-09       1.350825028141e-10      -1.621424520937e-13 
    8       1.127617139929e-10       1.103050790803e-15       2.121796763569e-13       0.000000000000e+00       1.396373530270e-09       1.143631204693e-10      -5.652073216233e-15 
    9       1.117826106928e-10       7.634655824789e-16       1.715572315516e-13       0.000000000000e+00       1.176035206022e-09       9.825815628944e-11       7.614562718083e-14 
   10       1.114358189343e-10       6.419664349477e-16       1.446074660447e-13       0.000000000000e+00       1.005693089915e-09       8.547078605510e-11       1.021464255371e-13 
   11       1.114980630888e-10       5.700816986478e-16       1.297992209219e-13       0.000000000000e+00       8.468478044981e-10       7.532706996728e-11       9.186644862291e-14 
   12       1.119423045662e-10       4.966584491236e-16       1.245780399408e-13       0.000000000000e+00       7.398976117683e-10       6.670081889567e-11       6.312192046335e-14 
   13       1.126568822281e-10       4.344252928252e-16       1.260920929633e-13       0.000000000000e+00       6.521093874481e-10       5.944264769722e-11       2.907287790103e-14 
   14       1.135843116574e-10       4.033110266013e-16       1.317498379205e-13       0.000000000000e+00       5.790657826835e-10       5.335081682132e-11      -9.919980800642e-16 
   15       1.147065372740e-10       4.062686091778e-16       1.394615975231e-13       0.000000000000e+00       5.175894121806e-10       4.820264676394e-11      -2.218685757730e-14 
   16       1.159490048286e-10       4.334871512193e-16       1.478951924917e-13       0.000000000000e+00       4.653243584429e-10       4.376987797071e-11      -3.331321176870e-14 
   17       1.173666042555e-10       4.753018193649e-16       1.562928429397e-13       0.000000000000e+00       4.204902864444e-10       3.982060681833e-11      -3.583228603844e-14 
   18       1.188709987031e-10       5.295517925607e-16       1.643126327981e-13       0.000000000000e+00       3.815764309275e-10       3.638606796058e-11      -3.220310926003e-14 
   19       1.204620455976e-10       6.002829761076e-16       1.720701917522e-13       0.000000000000e+00       3.479671810651e-10       3.342034759040e-11      -2.499075540159e-14 
   20       1.221297451003e-10       6.927188958259e-16       1.798292435293e-13       0.000000000000e+00       3.183670631873e-10       3.075341870858e-11      -1.731450407988e-14 
   21       1.238746103386e-10       8.088060582964e-16       1.878027935305e-13       0.000000000000e+00       2.923110644290e-10       2.837636582963e-11      -1.085689389303e-14 
   22       1.256710346612e-10       9.486755242071e-16       1.961549841609e-13       0.000000000000e+00       2.691756702605e-10       2.629170961717e-11      -6.763561643570e-15 
   23       1.275300968518e-10       1.111260967998e-15       2.048390399084e-13       0.000000000000e+00       2.486424711582e-10       2.446103927265e-11      -5.095596134369e-15 
   24       1.294509104670e-10       1.294832299929e-15       2.136847183848e-13       0.000000000000e+00       2.302364359084e-10       2.280700727829e-11      -5.392956063086e-15 
   25       1.314241914729e-10       1.499483261154e-15       2.224565058312e-13       0.000000000000e+00       2.137411056757e-10       2.129086329650e-11      -7.062193610186e-15 
   26       1.334252966008e-10       1.725697747006e-15       2.308560265965e-13       0.000000000000e+00       1.988581637848e-10       1.987820994126e-11      -9.331153976528e-15 
   27       1.354625160248e-10       1.973745977278e-15       2.386112507707e-13       0.000000000000e+00       1.854094475203e-10       1.858667433323e-11      -1.148119112470e-14 
   28       1.375435866976e-10       2.243870208197e-15       2.454533394162e-13       0.000000000000e+00       1.731634461178e-10       1.743768018405e-11      -1.283706088854e-14 
   29       1.396739820057e-10       2.537086454120e-15       2.512391303617e-13       0.000000000000e+00       1.620573896697e-10       1.641896360999e-11      -1.332116254337e-14 
   30       1.418448020884e-10       2.854703859318e-15       2.558612797771e-13       0.000000000000e+00       1.519715155224e-10       1.549285403142e-11      -1.308440692688e-14 
   31       1.440369873240e-10       3.198111213937e-15       2.592345559978e-13       0.000000000000e+00       1.426995966809e-10       1.461440594774e-11      -1.233414447103e-14 
   32       1.462565729822e-10       3.568720150703e-15       2.613788513607e-13       0.000000000000e+00       1.341938527206e-10       1.378556506535e-11      -1.126035481134e-14 
   33       1.485100890801e-10       3.968010337757e-15       2.623710215628e-13       0.000000000000e+00       1.263944748807e-10       1.301995132414e-11      -1.009037630928e-14 
   34       1.507962751041e-10       4.397408351568e-15       2.622929891914e-13       0.000000000000e+00       1.191926567697e-10       1.232578800259e-11      -9.065867573139e-15 
   35       1.531133256904e-10       4.857797862205e-15       2.611163198945e-13       0.000000000000e+00       1.125515172500e-10       1.169666298235e-11      -8.280844207448e-15 
   36       1.554523348332e-10       5.349829273069e-15       2.587777630774e-13       0.000000000000e+00       1.064176281109e-10       1.111650791929e-11      -7.788722034991e-15 
   37       1.578011341759e-10       5.874090998888e-15       2.552113189168e-13       0.000000000000e+00       1.007110069289e-10       1.056714030542e-11      -7.621114474850e-15 
   38       1.601675426981e-10       6.431284297090e-15       2.503557999140e-13       0.000000000000e+00       9.541688895694e-11       1.004808826140e-11      -7.706420302958e-15 
   39       1.625626966549e-10       7.022096355814e-15       2.441490750396e-13       0.000000000000e+00       9.051849809865e-11       9.562729661711e-12      -7.921889727227e-15 
   40       1.649942511665e-10       7.647147999249e-15       2.365256071054e-13       0.000000000000e+00       8.596913680610e-11       9.112761301109e-12      -8.112682956167e-15 
   41       1.674656050067e-10       8.307035588988e-15       2.274212435115e-13       0.000000000000e+00       8.170845389361e-11       8.697999015198e-12      -8.132873302195e-15 
   42       1.699743536704e-10       9.002483420909e-15       2.167902840041e-13       0.000000000000e+00       7.772389146082e-11       8.316120261567e-12      -7.989621926612e-15 
   43       1.725125749968e-10       9.734233735440e-15       2.045933950072e-13       0.000000000000e+00       7.400484789573e-11       7.962543336016e-12      -7.742357534601e-15 
   44       1.750666468117e-10       1.050300373387e-14       1.907929689056e-13       0.000000000000e+00       7.052423812196e-11       7.630271696077e-12      -7.464520797525e-15 
   45       1.776227044980e-10       1.130942979396e-14       1.753573468610e-13       0.000000000000e+00       6.724816407019e-11       7.311959083768e-12      -7.228442217441e-15 
   46       1.801860727107e-10       1.215388288516e-14       1.582749595490e-13       0.000000000000e+00       6.417146551296e-11       7.007257234065e-12      -7.052602918030e-15 
   47       1.827668393131e-10       1.303659605279e-14       1.395444378872e-13       0.000000000000e+00       6.129056568785e-11       6.717364471861e-12      -6.940037377129e-15 
   48       1.853743021490e-10       1.395771012086e-14       1.191710211141e-13       0.000000000000e+00       5.859274957124e-11       6.442928469174e-12      -6.892851323379e-15 
   49       1.880168381035e-10       1.491726941725e-14       9.716681325008e-14       0.000000000000e+00       5.605548432764e-11       6.183998766967e-12      -6.912143344269e-15 
   50       1.907005242542e-10       1.591528335676e-14       7.354215810763e-14       0.000000000000e+00       5.365320477093e-11       5.940164755599e-12      -6.996104061386e-15 
   51       1.934248638738e-10       1.695194081384e-14       4.827640933898e-14       0.000000000000e+00       5.138141765358e-11       5.711123919343e-12      -7.133887261583e-15 
   52       1.961856739624e-10       1.802744654975e-14       2.133966955639e-14       0.000000000000e+00       4.923796556913e-11       5.496185766462e-12      -7.309939648347e-15 
   53       1.989760465957e-10       1.914195929293e-14      -7.299179326363e-15       0.000000000000e+00       4.721581332033e-11       5.294062020167e-12      -7.505517614552e-15 
   54       2.017861592606e-10       2.029559056342e-14      -3.767263758392e-14       0.000000000000e+00       4.530271966311e-11       5.102827867886e-12      -7.698523088958e-15 
   55       2.046065690559e-10       2.148839218124e-14      -6.981132588935e-14       0.000000000000e+00       4.348496981846e-11       4.920451459497e-12      -7.868923684932e-15 
   56       2.074394881130e-10       2.272031785054e-14      -1.037328811008e-13       0.000000000000e+00       4.176041083461e-11       4.746625212229e-12      -8.016965977888e-15 
   57       2.102899770192e-10       2.399124997306e-14      -1.394505848124e-13       0.000000000000e+00       4.012807952238e-11       4.581321566280e-12      -8.149199269222e-15 
   58       2.131626536085e-10       2.530100854680e-14      -1.769765724520e-13       0.000000000000e+00       3.858425906090e-11       4.424248344934e-12      -8.273339953375e-15 
   59       2.160616390318e-10       2.664934954954e-14      -2.163218613972e-13       0.000000000000e+00       3.712230895329e-11       4.274832143409e-12      -8.398324934546e-15 
   60       2.189905038274e-10       2.803596332247e-14      -2.574963790904e-13       0.000000000000e+00       3.573249498231e-11       4.132201717708e-12      -8.534365043416e-15 
   61       2.219520902018e-10       2.946047147411e-14      -3.005057292882e-13       0.000000000000e+00       3.440469133780e-11       3.995448156847e-12      -8.689925342679e-15 
   62       2.249480542624e-10       3.092242043718e-14      -3.453405790083e-13       0.000000000000e+00       3.313758044420e-11       3.864511220772e-12      -8.861753148287e-15 
   63       2.279791248671e-10       3.242128359054e-14      -3.919849284191e-13       0.000000000000e+00       3.193122578411e-11       3.739463379128e-12      -9.042696292913e-15 
   64       2.310451616363e-10       3.395646098065e-14      -4.404190886058e-13       0.000000000000e+00       3.078430459668e-11       3.620242909473e-12      -9.224535506244e-15 
   65       2.341450970956e-10       3.552727765817e-14      -4.906196061899e-13       0.000000000000e+00       2.969402896510e-11       3.506646068255e-12      -9.397940324207e-15 
   66       2.372768788181e-10       3.713298201462e-14      -5.425591879480e-13       0.000000000000e+00       2.865606690406e-11       3.398319261782e-12      -9.552424998194e-15 
   67       2.404374115677e-10       3.877274411890e-14      -5.962066254302e-13       0.000000000000e+00       2.766446344734e-11       3.294751217205e-12      -9.676304404281e-15 
   68       2.436237001196e-10       4.044566854073e-14      -6.515300916744e-13       0.000000000000e+00       2.671323014574e-11       3.195415436332e-12      -9.759486688879e-15 
   69       2.468366759504e-10       4.215083955613e-14      -7.085079755445e-13       0.000000000000e+00       2.580166395305e-11       3.100248575804e-12      -9.802606854605e-15 
   70       2.500780455615e-10       4.388728215563e-14      -7.671201173831e-13       0.000000000000e+00       2.492996927647e-11       3.009255380308e-12      -9.809673176047e-15 
   71       2.533491317442e-10       4.565394709825e-14      -8.273446418242e-13       0.000000000000e+00       2.409764933229e-11       2.922363062252e-12      -9.785422162684e-15 
   72       2.566508464309e-10       4.744970961863e-14      -8.891579686554e-13       0.000000000000e+00       2.330346990374e-11       2.839417316288e-12      -9.735347018910e-15 
   73       2.599836635450e-10       4.927336813416e-14      -9.525348236791e-13       0.000000000000e+00       2.254542309884e-11       2.760178333840e-12      -9.665726104065e-15 
   74       2.633475918517e-10       5.112364295203e-14      -1.017448249575e-12       0.000000000000e+00       2.182069110830e-11       2.684316817631e-12      -9.583651392460e-15 
   75       2.667421478092e-10       5.299917497640e-14      -1.083869616760e-12       0.000000000000e+00       2.112560996332e-11       2.611409996208e-12      -9.497056933408e-15 
   76       2.701667824558e-10       5.489857062608e-14      -1.151768227278e-12       0.000000000000e+00       2.045657853678e-11       2.541046143653e-12      -9.413028038162e-15 
   77       2.736223119594e-10       5.682054890205e-14      -1.221110019060e-12       0.000000000000e+00       1.981305702950e-11       2.473168952866e-12      -9.332309968457e-15 
   78       2.771096998232e-10       5.876381891408e-14      -1.291858644012e-12       0.000000000000e+00       1.919505196814e-11       2.407789011370e-12      -9.253844934606e-15 
   79       2.806296084402e-10       6.072703570962e-14      -1.363975856508e-12       0.000000000000e+00       1.860220288321e-11       2.344879135193e-12      -9.176395848227e-15 
   80       2.841823812543e-10       6.270879992845e-14      -1.437421515901e-12       0.000000000000e+00       1.803376544998e-11       2.284372608374e-12      -9.098539527182e-15 
   81       2.877680249217e-10       6.470765745744e-14      -1.512153589046e-12       0.000000000000e+00       1.748859462925e-11       2.226161422484e-12      -9.018659900518e-15 
   82       2.913861914714e-10       6.672209908518e-14      -1.588128152809e-12       0.000000000000e+00       1.696512780821e-11       2.170094516131e-12      -8.934941213407e-15 
   83       2.950361604664e-10       6.875056015671e-14      -1.665299396589e-12       0.000000000000e+00       1.646136794130e-11       2.115976014480e-12      -8.845361232090e-15 
   84       2.987171887938e-10       7.079142993163e-14      -1.743619391698e-12       0.000000000000e+00       1.597536862632e-11       2.063615271963e-12      -8.748270207570e-15 
   85       3.024296657356e-10       7.284308219719e-14      -1.823037350070e-12       0.000000000000e+00       1.550681865788e-11       2.012990388680e-12      -8.644252929916e-15 
   86       3.061741175677e-10       7.490384912069e-14      -1.903500246707e-12       0.000000000000e+00       1.505569047029e-11       1.964108699823e-12      -8.534564339966e-15 
   87       3.099508454675e-10       7.697201181779e-14      -1.984953040500e-12       0.000000000000e+00       1.462175325884e-11       1.916956505919e-12      -8.420574221234e-15 
   88       3.137599138540e-10       7.904580017025e-14      -2.067338672831e-12       0.000000000000e+00       1.420456455653e-11       1.871498182985e-12      -8.303770249538e-15 
   89       3.176011387272e-10       8.112339264376e-14      -2.150598066170e-12       0.000000000000e+00       1.380346181084e-11       1.827675292685e-12      -8.185761042626e-15 
   90       3.214740760078e-10       8.320291610568e-14      -2.234670122673e-12       0.000000000000e+00       1.341755396037e-11       1.785405692479e-12      -8.068279209799e-15 
   91       3.253780098769e-10       8.528244564284e-14      -2.319491722781e-12       0.000000000000e+00       1.304571301166e-11       1.744582645787e-12      -7.953184401538e-15 
   92       3.293119411157e-10       8.736000437931e-14      -2.404997723817e-12       0.000000000000e+00       1.268656561583e-11       1.705073932134e-12      -7.842466359131e-15 
   93       3.332749021772e-10       8.943361126942e-14      -2.491122570404e-12       0.000000000000e+00       1.233881868564e-11       1.666754133630e-12      -7.737843277522e-15 
   94       3.372669819346e-10       9.150143309501e-14      -2.577805405825e-12       0.000000000000e+00       1.200231056227e-11       1.629608981815e-12      -7.639481171075e-15 
   95       3.412884342135e-10       9.356165509805e-14      -2.664985730397e-12       0.000000000000e+00       1.167710310589e-11       1.593645132376e-12      -7.547086642570e-15 
   96       3.453393577130e-10       9.561243551224e-14      -2.752601878595e-12       0.000000000000e+00       1.136315795553e-11       1.558857958556e-12      -7.460291936403e-15 
   97       3.494196888307e-10       9.765190603934e-14      -2.840591039774e-12       0.000000000000e+00       1.106033269109e-11       1.525231116718e-12      -7.378652433147e-15 
   98       3.535291944869e-10       9.967817232551e-14      -2.928889278893e-12       0.000000000000e+00       1.076837699540e-11       1.492736111905e-12      -7.301644144106e-15 
   99       3.576674649498e-10       1.016893144376e-13      -3.017431557239e-12       0.000000000000e+00       1.048692881626e-11       1.461331863399e-12      -7.228661205871e-15 
  100       3.618339066595e-10       1.036833873396e-13      -3.106151753150e-12       0.000000000000e+00       1.021551052844e-11       1.430964270286e-12      -7.159013374879e-15 
  101       3.660277350532e-10       1.056584213688e-13      -3.194982682735e-12       0.000000000000e+00       9.953525095797e-12       1.401565777014e-12      -7.091923521967e-15 
  102       3.702479673897e-10       1.076124227121e-13      -3.283856120604e-12       0.000000000000e+00       9.700252233247e-12       1.373054938954e-12      -7.026525126932e-15 
  103       3.744934155739e-10       1.095433738826e-13      -3.372702820586e-12       0.000000000000e+00       9.454844568838e-12       1.345335987962e-12      -6.961859773085e-15 
  104       3.787629378827e-10       1.114492790160e-13      -3.461452823251e-12       0.000000000000e+00       9.216519610960e-12       1.318320967243e-12      -6.897071504410e-15 
  105       3.830562483247e-10       1.133283057033e-13      -3.550036381151e-12       0.000000000000e+00       8.985173449768e-12       1.292000477034e-12      -6.832025194475e-15 
  106       3.873732037450e-10       1.151786632948e-13      -3.638383197781e-12       0.000000000000e+00       8.760843188756e-12       1.266381720200e-12      -6.766767428154e-15 
  107       3.917135504095e-10       1.169985607483e-13      -3.726422175530e-12       0.000000000000e+00       8.543516876712e-12       1.241466602158e-12      -6.701336760380e-15 
