# dimensionless total lensed [l(l+1)/2pi] C_l's
# for l=2 to 2500, i.e. number of multipoles equal to 2499
#
# -> if you prefer output in CAMB/HealPix/LensPix units/order, set 'format' to 'camb' in input file
# -> if you don't want to see such a header, set 'headers' to 'no' in input file
# -> for CMB lensing (phi), these are C_l^phi-phi for the lensing potential.
#    Remember the conversion factors:
#    C_l^dd (deflection) = l(l+1) C_l^phi-phi
#    C_l^gg (shear/convergence) = 1/4 (l(l+1))^2 C_l^phi-phi
#
# 1:l     2:TT                     3:EE                     4:TE                     5:BB                     6:phiphi                 7:TPhi                   8:Ephi               
    2       2.907279574032e-10       7.950984163741e-15       5.707085841964e-13       4.890338011938e-15       8.448496728540e-09       4.776628533946e-10      -2.108170113217e-12 
    3       2.487238800545e-10       1.030407500651e-14       4.623998727941e-13       4.926098450650e-15       5.261623518569e-09       3.393634933368e-10      -1.687940186229e-12 
    4       2.293352398827e-10       9.860983625484e-15       3.953682283664e-13       4.284999869055e-15       3.665940080188e-09       2.570569441839e-10      -1.199502229240e-12 
    5       2.184863919166e-10       7.607725040783e-15       3.309233388716e-13       3.357454535648e-15       2.737121932101e-09       2.031225357216e-10      -7.633630520670e-13 
    6       2.113793902133e-10       5.004229532854e-15       2.672130190027e-13       2.437143250916e-15       2.136559441300e-09       1.653423484129e-10      -4.155615836032e-13 
    7       2.067396382333e-10       3.002665024272e-15       2.097076024329e-13       1.685908470411e-15       1.721765255317e-09       1.375738034534e-10      -1.651329201587e-13 
    8       2.037025512294e-10       1.851643640827e-15       1.620680349125e-13       1.157880041228e-15       1.422127005082e-09       1.164721481263e-10      -5.756316531772e-15 
    9       2.018258055645e-10       1.355782692584e-15       1.259693941901e-13       8.409932851338e-16       1.197724863321e-09       1.000703651258e-10       7.755001283726e-14 
   10       2.007798904386e-10       1.208230944257e-15       1.013355849917e-13       6.925616775392e-16       1.024240965444e-09       8.704740176380e-11       1.040303445685e-13 
   11       2.002526351884e-10       1.191126094858e-15       8.683574349499e-14       6.635311460394e-16       8.624596394996e-10       7.671652948789e-11       9.356077562881e-14 
   12       2.001674388795e-10       1.215956077643e-15       8.026479111054e-14       7.111301607367e-16       7.535374718236e-10       6.793089103284e-11       6.428612062110e-14 
   13       2.003819379991e-10       1.272919980352e-15       7.911334036122e-14       8.040602736968e-16       6.641306034953e-10       6.053871404555e-11       2.960909535917e-14 
   14       2.008193161221e-10       1.371514939173e-15       8.105444979624e-14       9.217579375061e-16       5.897402313207e-10       5.433470058350e-11      -1.010307232187e-15 
   15       2.014498337731e-10       1.510659090761e-15       8.418236378441e-14       1.052818652877e-15       5.271303805714e-10       4.909186189648e-11      -2.259607911944e-14 
   16       2.021904036787e-10       1.679591383159e-15       8.730126414712e-14       1.191638326950e-15       4.739016920066e-10       4.457740303882e-11      -3.392761198124e-14 
   17       2.030942946455e-10       1.869229458645e-15       8.975432591314e-14       1.335392679047e-15       4.282410024251e-10       4.055504166476e-11      -3.649313083210e-14 
   18       2.040627098511e-10       2.077213654727e-15       9.127037572574e-14       1.483736402009e-15       3.886096874822e-10       3.705690193417e-11      -3.279704884450e-14 
   19       2.051131369978e-10       2.307535970144e-15       9.201548140573e-14       1.636449315533e-15       3.543807903406e-10       3.403646992810e-11      -2.545170425911e-14 
   20       2.062163333246e-10       2.565572664278e-15       9.232210243536e-14       1.793288314188e-15       3.242349454541e-10       3.132070367242e-11      -1.763384704556e-14 
   21       2.073833825142e-10       2.853099223872e-15       9.244087199283e-14       1.954151019011e-15       2.976985652026e-10       2.890011583478e-11      -1.105709141104e-14 
   22       2.085822812562e-10       3.169991317272e-15       9.257322991672e-14       2.119052780511e-15       2.741366402450e-10       2.677676892020e-11      -6.888276499935e-15 
   23       2.098321119937e-10       3.515017214411e-15       9.270577589499e-14       2.287893539828e-15       2.532248896860e-10       2.491190877832e-11      -5.189596156600e-15 
   24       2.111261694543e-10       3.886340747727e-15       9.270501629971e-14       2.460564261650e-15       2.344795230533e-10       2.322736246086e-11      -5.492469629404e-15 
   25       2.124609712851e-10       4.283997672964e-15       9.236188942465e-14       2.636869024791e-15       2.176800901287e-10       2.168353633525e-11      -7.192481066648e-15 
   26       2.138078503702e-10       4.708477135037e-15       9.140330535509e-14       2.816591309743e-15       2.025227740671e-10       2.024504058905e-11      -9.503232087147e-15 
   27       2.151775943431e-10       5.160157697872e-15       8.957840997046e-14       2.999470455351e-15       1.888261270522e-10       1.892974655041e-11      -1.169287385243e-14 
   28       2.165738927704e-10       5.639399598105e-15       8.663955833984e-14       3.185243972851e-15       1.763543697593e-10       1.775948834570e-11      -1.307376837142e-14 
   29       2.180103764364e-10       6.147055225480e-15       8.246448427933e-14       3.373688124499e-15       1.650435746572e-10       1.672183253295e-11      -1.356686185227e-14 
   30       2.194790198467e-10       6.684152480567e-15       7.696801692808e-14       3.564605052486e-15       1.547717708920e-10       1.577849990057e-11      -1.332579109872e-14 
   31       2.209522466816e-10       7.251768021613e-15       7.008830348093e-14       3.757802084756e-15       1.453289293396e-10       1.488380104271e-11      -1.256167719961e-14 
   32       2.224414979390e-10       7.851041239583e-15       6.186714073562e-14       3.953035858180e-15       1.366663884527e-10       1.403970886007e-11      -1.146802567859e-14 
   33       2.239557014625e-10       8.483170356726e-15       5.240356591725e-14       4.150047638307e-15       1.287232366681e-10       1.326004928430e-11      -1.027642142512e-14 
   34       2.254896607466e-10       9.149293980124e-15       4.180160667920e-14       4.348582906583e-15       1.213886615755e-10       1.255314900226e-11      -9.233029343632e-15 
   35       2.270449270366e-10       9.850082261860e-15       3.005113765410e-14       4.548409828934e-15       1.146251019502e-10       1.191246313511e-11      -8.433579862330e-15 
   36       2.286128300524e-10       1.058599287690e-14       1.710574819943e-14       4.749307635784e-15       1.083781444988e-10       1.132162186009e-11      -7.932427517641e-15 
   37       2.301774568894e-10       1.135742652678e-14       2.916453096730e-15       4.951051641731e-15       1.025663322351e-10       1.076210419823e-11      -7.761725121322e-15 
   38       2.317510547918e-10       1.216492087746e-14      -1.255819203192e-14       5.153377290977e-15       9.717462808301e-11       1.023343640308e-11      -7.848558057479e-15 
   39       2.333481830962e-10       1.300901134598e-14      -2.935962203982e-14       5.356003858099e-15       9.218594656500e-11       9.739070328921e-12      -8.067938454212e-15 
   40       2.349750117343e-10       1.389017427112e-14      -4.753242975679e-14       5.558643396796e-15       8.755272921379e-11       9.280748707981e-12      -8.262202918938e-15 
   41       2.366309350264e-10       1.480886441840e-14      -6.712340863441e-14       5.761007925775e-15       8.321351225669e-11       8.858298064705e-12      -8.282762669565e-15 
   42       2.383163480419e-10       1.576565137645e-14      -8.817744135315e-14       5.962835068648e-15       7.915550620477e-11       8.469354146643e-12      -8.136905135938e-15 
   43       2.400257891084e-10       1.676112112218e-14      -1.107408781205e-13       6.163869872249e-15       7.536791393583e-11       8.109247603925e-12      -7.885136603447e-15 
   44       2.417448193877e-10       1.779583755509e-14      -1.348630023160e-13       6.363857815737e-15       7.182315104051e-11       7.770848745841e-12      -7.602229538322e-15 
   45       2.434572723517e-10       1.887027341231e-14      -1.605844617340e-13       6.562540471765e-15       6.848669454396e-11       7.446671701165e-12      -7.361827225255e-15 
   46       2.451714283415e-10       1.998458077008e-14      -1.878978124149e-13       6.759640939453e-15       6.535328902507e-11       7.136360977174e-12      -7.182751514943e-15 
   47       2.469003357781e-10       2.113875020917e-14      -2.167756305388e-13       6.954874059147e-15       6.241929172380e-11       6.841137071555e-12      -7.068099632223e-15 
   48       2.486541487906e-10       2.233266812624e-14      -2.471809172996e-13       7.147950132802e-15       5.967175319044e-11       6.561659620463e-12      -7.020024501096e-15 
   49       2.504398082125e-10       2.356611180104e-14      -2.790666828241e-13       7.338574675604e-15       5.708772521063e-11       6.297979040921e-12      -7.039654996722e-15 
   50       2.522610749677e-10       2.483880420168e-14      -3.123876405735e-13       7.526461427282e-15       5.464117133383e-11       6.049676757483e-12      -7.125157560636e-15 
   51       2.541193810034e-10       2.615060738180e-14      -3.471399980663e-13       7.711376125947e-15       5.232751544228e-11       5.816442944420e-12      -7.265485778617e-15 
   52       2.560126579149e-10       2.750137305234e-14      -3.833317476758e-13       7.893104186817e-15       5.014456031948e-11       5.597572016034e-12      -7.444796347079e-15 
   53       2.579347094952e-10       2.889088536042e-14      -4.209716503134e-13       8.071438847692e-15       4.808514106084e-11       5.391749202337e-12      -7.643996178903e-15 
   54       2.598749093145e-10       3.031885876787e-14      -4.600693892531e-13       8.246181544556e-15       4.613679076824e-11       5.197011066006e-12      -7.840575190182e-15 
   55       2.618225149229e-10       3.178496309813e-14      -5.006346960036e-13       8.417144273241e-15       4.428554185370e-11       5.011285547080e-12      -8.014127454477e-15 
   56       2.637815583203e-10       3.328891082393e-14      -5.426741212391e-13       8.584156500977e-15       4.252920164767e-11       4.834259653086e-12      -8.164903889948e-15 
   57       2.657591248847e-10       3.483038774769e-14      -5.861937311325e-13       8.747060629715e-15       4.086678917450e-11       4.665906585568e-12      -8.299575570835e-15 
   58       2.677609409556e-10       3.640902669293e-14      -6.312001763234e-13       8.905710603613e-15       3.929451908071e-11       4.505930326800e-12      -8.426002389602e-15 
   59       2.697912512814e-10       3.802440644120e-14      -6.777008056917e-13       9.059972362018e-15       3.780562845707e-11       4.353748735742e-12      -8.553287468381e-15 
   60       2.718526964665e-10       3.967605066907e-14      -7.257037801310e-13       9.209724292444e-15       3.639020366076e-11       4.208476643985e-12      -8.691831570418e-15 
   61       2.739469643634e-10       4.136341671349e-14      -7.752135322505e-13       9.354855168760e-15       3.503793224139e-11       4.069190369402e-12      -8.850257333442e-15 
   62       2.760771923554e-10       4.308586132599e-14      -8.262156971902e-13       9.495256400190e-15       3.374747231487e-11       3.935828879675e-12      -9.025252116554e-15 
   63       2.782458892738e-10       4.484266531032e-14      -8.786889858658e-13       9.630828838418e-15       3.251888850984e-11       3.808465828612e-12      -9.209531449680e-15 
   64       2.804541129799e-10       4.663304165733e-14      -9.326095073423e-13       9.761485504655e-15       3.135083366690e-11       3.687038170730e-12      -9.394724013234e-15 
   65       2.827013723686e-10       4.845613415926e-14      -9.879507349384e-13       9.887151962826e-15       3.024046847202e-11       3.571338186373e-12      -9.571326731389e-15 
   66       2.849855293726e-10       5.031101602392e-14      -1.044683472329e-12       1.000776669276e-14       2.918338109007e-11       3.461005506834e-12      -9.728659865335e-15 
   67       2.873027009662e-10       5.219668848893e-14      -1.102775819651e-12       1.012328146336e-14       2.817350679832e-11       3.355519139478e-12      -9.854822106540e-15 
   68       2.896490300642e-10       5.411208875232e-14      -1.162195953980e-12       1.023365276770e-14       2.720474677515e-11       3.254342641850e-12      -9.939534900636e-15 
   69       2.920266339510e-10       5.605611872799e-14      -1.222921200773e-12       1.033881327868e-14       2.627638500070e-11       3.157411628820e-12      -9.983445051506e-15 
   70       2.944386906535e-10       5.802761965416e-14      -1.284930748090e-12       1.043869525337e-14       2.538862963212e-11       3.064731174673e-12      -9.990635057900e-15 
   71       2.968876273928e-10       6.002536216560e-14      -1.348203032259e-12       1.053323910137e-14       2.454097471595e-11       2.976227419009e-12      -9.965929129517e-15 
   72       2.993750703856e-10       6.204804514613e-14      -1.412715775951e-12       1.062239352941e-14       2.373216327818e-11       2.891743508723e-12      -9.914922173637e-15 
   73       3.019017946465e-10       6.409429458107e-14      -1.478446026267e-12       1.070611568592e-14       2.296015041446e-11       2.811035539979e-12      -9.844008781743e-15 
   74       3.044676737892e-10       6.616266240980e-14      -1.545370192819e-12       1.078437130564e-14       2.222206638022e-11       2.733768500183e-12      -9.760412216155e-15 
   75       3.070716298285e-10       6.825162537819e-14      -1.613464085814e-12       1.085713485423e-14       2.151417968080e-11       2.659512209957e-12      -9.672213396657e-15 
   76       3.097124993128e-10       7.035963220141e-14      -1.682701868372e-12       1.092438939838e-14       2.083282282188e-11       2.587847668920e-12      -9.586628779770e-15 
   77       3.123919250302e-10       7.248525751777e-14      -1.753052608740e-12       1.098612586938e-14       2.017744604598e-11       2.518717451964e-12      -9.504417369144e-15 
   78       3.151119028688e-10       7.462707405477e-14      -1.824483165624e-12       1.104234392733e-14       1.954805598894e-11       2.452132133678e-12      -9.424501720890e-15 
   79       3.178738813660e-10       7.678360665502e-14      -1.896959233742e-12       1.109305236041e-14       1.894428552928e-11       2.388063787972e-12      -9.345621761530e-15 
   80       3.206787303005e-10       7.895333211941e-14      -1.970445359635e-12       1.113826922381e-14       1.836537661839e-11       2.326444193972e-12      -9.266327866756e-15 
   81       3.235267092837e-10       8.113467905024e-14      -2.044904957492e-12       1.117802197869e-14       1.781016311087e-11       2.267163041910e-12      -9.184973940180e-15 
   82       3.264174363521e-10       8.332602769433e-14      -2.120300324963e-12       1.121234763119e-14       1.727705359476e-11       2.210066139022e-12      -9.099710492093e-15 
   83       3.293498565588e-10       8.552570978620e-14      -2.196592658981e-12       1.124129287132e-14       1.676401422182e-11       2.154953615443e-12      -9.008477718213e-15 
   84       3.323228858913e-10       8.773201526939e-14      -2.273741256788e-12       1.126490922427e-14       1.626906272068e-11       2.101630968305e-12      -8.909595202546e-15 
   85       3.353375344760e-10       8.994321408441e-14      -2.351700932196e-12       1.128323727606e-14       1.579188214399e-11       2.050075846684e-12      -8.803658511142e-15 
   86       3.383950794073e-10       9.215753772196e-14      -2.430424198009e-12       1.129632007545e-14       1.533244441036e-11       2.000295755214e-12      -8.691945785514e-15 
   87       3.414964009542e-10       9.437317262522e-14      -2.509862044817e-12       1.130420794348e-14       1.489051445553e-11       1.952276781520e-12      -8.575852133898e-15 
   88       3.446419625025e-10       9.658826014855e-14      -2.589963943126e-12       1.130695852858e-14       1.446564165398e-11       1.905982690144e-12      -8.456892737294e-15 
   89       3.478317904958e-10       9.880089651627e-14      -2.670677845478e-12       1.130463686173e-14       1.405715124047e-11       1.861354016480e-12      -8.336705955525e-15 
   90       3.510654543784e-10       1.010091327813e-13      -2.751950188574e-12       1.129731541161e-14       1.366413573162e-11       1.818307160703e-12      -8.217056433279e-15 
   91       3.543420465364e-10       1.032109747842e-13      -2.833725895404e-12       1.128507413968e-14       1.328544634752e-11       1.776733481702e-12      -8.099838206164e-15 
   92       3.576601622398e-10       1.054043831112e-13      -2.915948377366e-12       1.126800055537e-14       1.291968443326e-11       1.736498391010e-12      -7.987077806755e-15 
   93       3.610184569451e-10       1.075873199123e-13      -2.998560680282e-12       1.124618578410e-14       1.256553307444e-11       1.697474217342e-12      -7.880525197593e-15 
   94       3.644174576512e-10       1.097578974956e-13      -3.081509114999e-12       1.121971197512e-14       1.222282762828e-11       1.659646422336e-12      -7.780349446597e-15 
   95       3.678579881533e-10       1.119142521093e-13      -3.164740179301e-12       1.118866309294e-14       1.189163108899e-11       1.623021758770e-12      -7.686251711122e-15 
   96       3.713406039862e-10       1.140544996678e-13      -3.248199480254e-12       1.115312873608e-14       1.157190438374e-11       1.587595486770e-12      -7.597857414250e-15 
   97       3.748655802913e-10       1.161767363541e-13      -3.331831752036e-12       1.111320413746e-14       1.126350246405e-11       1.553350931305e-12      -7.514713693005e-15 
   98       3.784328996841e-10       1.182790392217e-13      -3.415580873764e-12       1.106899016485e-14       1.096617039713e-11       1.520259039682e-12      -7.436286846570e-15 
   99       3.820422401206e-10       1.203594667964e-13      -3.499389887314e-12       1.102059332123e-14       1.067953945726e-11       1.488277939043e-12      -7.361959784507e-15 
  100       3.856929627654e-10       1.224160596783e-13      -3.583201015156e-12       1.096812574522e-14       1.040312321714e-11       1.457352493855e-12      -7.291029474975e-15 
  101       3.893840998584e-10       1.244468411439e-13      -3.666955678170e-12       1.091170521147e-14       1.013631363927e-11       1.427413863411e-12      -7.222704392948e-15 
  102       3.931143425818e-10       1.264498177478e-13      -3.750594513484e-12       1.085145513108e-14       9.878377167288e-12       1.398379059320e-12      -7.156101968428e-15 
  103       3.968820289278e-10       1.284229799250e-13      -3.834057392288e-12       1.078750455200e-14       9.628450817361e-12       1.370150503004e-12      -7.090246034671e-15 
  104       4.006855853141e-10       1.303643445485e-13      -3.917283331164e-12       1.071998334868e-14       9.385737681197e-12       1.342638579138e-12      -7.024264783723e-15 
  105       4.045249455044e-10       1.322720878547e-13      -4.000210174010e-12       1.064900705001e-14       9.150131931122e-12       1.315833718821e-12      -6.958020583889e-15 
  106       4.084003016364e-10       1.341444316802e-13      -4.082774900179e-12       1.057468995311e-14       8.921671350307e-12       1.289743274166e-12      -6.891560880243e-15 
  107       4.123116605298e-10       1.359796041595e-13      -4.164913743601e-12       1.049714969917e-14       8.700343763917e-12       1.264369204375e-12      -6.824924940550e-15 
