# dimensionless total lensed [l(l+1)/2pi] C_l's
# for l=2 to 2500, i.e. number of multipoles equal to 2499
#
# -> if you prefer output in CAMB/HealPix/LensPix units/order, set 'format' to 'camb' in input file
# -> if you don't want to see such a header, set 'headers' to 'no' in input file
# -> for CMB lensing (phi), these are C_l^phi-phi for the lensing potential.
#    Remember the conversion factors:
#    C_l^dd (deflection) = l(l+1) C_l^phi-phi
#    C_l^gg (shear/convergence) = 1/4 (l(l+1))^2 C_l^phi-phi
#
# 1:l     2:TT                     3:EE                     4:TE                     5:BB                     6:phiphi                 7:TPhi                   8:Ephi               
    2       2.854586042334e-10       7.806955969966e-15       5.603665875029e-13       4.801848529414e-15       8.324688351999e-09       4.705847352823e-10      -2.075205399014e-12 
    3       2.442154337190e-10       1.011734018945e-14       4.540120206513e-13       4.837033051484e-15       5.203028765831e-09       3.350350600252e-10      -1.661649175999e-12 
    4       2.251779246680e-10       9.682218787942e-15       3.881849952292e-13       4.207639987395e-15       3.640408945628e-09       2.543192780733e-10      -1.180018984378e-12 
    5       2.145253275788e-10       7.469803334554e-15       3.248964738150e-13       3.297011484303e-15       2.730257168551e-09       2.013841168640e-10      -7.501388909925e-13 
    6       2.075466879220e-10       4.913585595385e-15       2.623285365553e-13       2.393509973510e-15       2.140713885324e-09       1.642690832187e-10      -4.076847459523e-13 
    7       2.029906075187e-10       2.948459996366e-15       2.058536039919e-13       1.656047057554e-15       1.732727869443e-09       1.369639410618e-10      -1.613460946929e-13 
    8       2.000082192683e-10       1.818516634830e-15       1.590667845208e-13       1.137772343933e-15       1.437635427543e-09       1.161926382479e-10      -4.699890299310e-15 
    9       1.981652036198e-10       1.331908043814e-15       1.236124718658e-13       8.268396567822e-16       1.216390768490e-09       1.000309596325e-10       7.710405686488e-14 
   10       1.971380960313e-10       1.187335629537e-15       9.941841312778e-14       6.813355164383e-16       1.044978190666e-09       8.718571533684e-11       1.030376540643e-13 
   11       1.966205980715e-10       1.170873239115e-15       8.518236480614e-14       6.530942049597e-16       8.803054868722e-10       7.767575497486e-11       9.198163600846e-14 
   12       1.965375759402e-10       1.195603689742e-15       7.874008365626e-14       7.001187686288e-16       7.721286395992e-10       6.839703319402e-11       6.409013585468e-14 
   13       1.967491313655e-10       1.251899341715e-15       7.762395400727e-14       7.916775624348e-16       6.829291046817e-10       6.054274245438e-11       3.002106281293e-14 
   14       1.971796961032e-10       1.349085252988e-15       7.954466706910e-14       9.075794316304e-16       6.085321755407e-10       5.455175322073e-11      -5.562702010752e-16 
   15       1.977999674630e-10       1.486102257620e-15       8.262856842398e-14       1.036626398756e-15       5.457494939794e-10       4.963454242847e-11      -2.188193197044e-14 
   16       1.985282183548e-10       1.652387480153e-15       8.570106479615e-14       1.173315847582e-15       4.922153920920e-10       4.511208627846e-11      -3.287646062140e-14 
   17       1.994167404571e-10       1.839025272560e-15       8.811735986732e-14       1.314874624349e-15       4.461459965536e-10       4.088509515959e-11      -3.567865856036e-14 
   18       2.003685651370e-10       2.043700016797e-15       8.961170148548e-14       1.460963650749e-15       4.060533649473e-10       3.751555094915e-11      -3.233210688022e-14 
   19       2.014008920049e-10       2.270331458852e-15       9.034747173132e-14       1.611366706126e-15       3.713224767820e-10       3.472341482007e-11      -2.517923102779e-14 
   20       2.024850399714e-10       2.524198387682e-15       9.065152570448e-14       1.765845054923e-15       3.406176956879e-10       3.186608159764e-11      -1.733302371015e-14 
   21       2.036318794661e-10       2.807043828054e-15       9.077018960918e-14       1.924298135797e-15       3.135018451192e-10       2.920160501362e-11      -1.069446344457e-14 
   22       2.048099666068e-10       3.118745432962e-15       9.090148962464e-14       2.086740981188e-15       2.893846500086e-10       2.718888552721e-11      -6.668501049109e-15 
   23       2.060380530792e-10       3.458093532475e-15       9.103235009796e-14       2.253075304638e-15       2.679355489348e-10       2.553614467941e-11      -5.154247774240e-15 
   24       2.073095815194e-10       3.823285181846e-15       9.103178235717e-14       2.423194005056e-15       2.486444200071e-10       2.373974013944e-11      -5.422859704181e-15 
   25       2.086211260748e-10       4.214356025499e-15       9.069468645842e-14       2.596904671179e-15       2.312961585911e-10       2.197979540918e-11      -6.988282355419e-15 
   26       2.099445258819e-10       4.631786925281e-15       8.975311643410e-14       2.773994667877e-15       2.155980441046e-10       2.059828775623e-11      -9.286159902528e-15 
   27       2.112903827439e-10       5.075948647515e-15       8.796073200692e-14       2.954208022039e-15       2.013701597599e-10       1.947609207918e-11      -1.155849789329e-14 
   28       2.126623352728e-10       5.547193655882e-15       8.507429262014e-14       3.137286969711e-15       1.883745496998e-10       1.835588858193e-11      -1.301509527118e-14 
   29       2.140737644008e-10       6.046359034346e-15       8.097379537976e-14       3.323011802407e-15       1.765577644815e-10       1.722165013761e-11      -1.354638768524e-14 
   30       2.155167805000e-10       6.574454821974e-15       7.557572221916e-14       3.511188228055e-15       1.658110598613e-10       1.613425836084e-11      -1.329610878614e-14 
   31       2.169642993315e-10       7.132539018196e-15       6.881944816205e-14       3.701627051589e-15       1.559331938952e-10       1.515096076430e-11      -1.247073369442e-14 
   32       2.184275618243e-10       7.721730491245e-15       6.074598972968e-14       3.894089310996e-15       1.468694063104e-10       1.428186171925e-11      -1.128555095177e-14 
   33       2.199153484661e-10       8.343205666483e-15       5.145251532066e-14       4.088320957844e-15       1.385433311276e-10       1.351579408585e-11      -1.000804901296e-14 
   34       2.214225700841e-10       8.998082427474e-15       4.104110120266e-14       4.284072089175e-15       1.308273490589e-10       1.283331331364e-11      -8.919054084987e-15 
   35       2.229507429598e-10       9.687018652005e-15       2.950184356892e-14       4.481115078297e-15       1.236864659732e-10       1.221659597065e-11      -8.110947888822e-15 
   36       2.244913391065e-10       1.041046357229e-14       1.678925338571e-14       4.679233168283e-15       1.170743726161e-10       1.164153659616e-11      -7.620468218171e-15 
   37       2.260287199097e-10       1.116881051047e-14       2.855311237543e-15       4.878205761527e-15       1.109165214361e-10       1.108261126744e-11      -7.461635939119e-15 
   38       2.275749110920e-10       1.196258744466e-14      -1.234067186669e-14       5.077773106748e-15       1.051994380266e-10       1.054122203385e-11      -7.558086635550e-15 
   39       2.291442138642e-10       1.279232022597e-14      -2.883940148975e-14       5.277659577515e-15       9.990481228700e-11       1.002615904118e-11      -7.785699123694e-15 
   40       2.307426938290e-10       1.365847674472e-14      -4.668469148927e-14       5.477582461813e-15       9.498197360476e-11       9.545903348301e-12      -7.987948939735e-15 
   41       2.323697637447e-10       1.456150363740e-14      -6.592251548851e-14       5.677259013944e-15       9.036561131719e-11       9.106687341217e-12      -8.017345880888e-15 
   42       2.340258126220e-10       1.550195980285e-14      -8.659693974826e-14       5.876431616443e-15       8.604266210089e-11       8.706122974647e-12      -7.881129203457e-15 
   43       2.357054769820e-10       1.648042003176e-14      -1.087534615746e-13       6.074849937293e-15       8.200244382502e-11       8.337354807954e-12      -7.639388880330e-15 
   44       2.373945786953e-10       1.749743734271e-14      -1.324404565644e-13       6.272264069314e-15       7.821660491773e-11       7.990525309660e-12      -7.366410160669e-15 
   45       2.390772431083e-10       1.855347532064e-14      -1.576978211846e-13       6.468420266947e-15       7.464942420818e-11       7.655664278571e-12      -7.135490937021e-15 
   46       2.407615993788e-10       1.964868336549e-14      -1.845182374576e-13       6.663046633167e-15       7.129570793851e-11       7.332889788549e-12      -6.965971863875e-15 
   47       2.424604582070e-10       2.078305255185e-14      -2.128747712051e-13       6.855863156111e-15       6.815182193454e-11       7.024894133205e-12      -6.861820732649e-15 
   48       2.441837882787e-10       2.195647174492e-14      -2.427310867905e-13       7.046585364575e-15       6.520424650788e-11       6.734072198247e-12      -6.826223958735e-15 
   49       2.459384030320e-10       2.316872276204e-14      -2.740410386088e-13       7.234924083927e-15       6.242883969385e-11       6.462486872939e-12      -6.861515748175e-15 
   50       2.477279935917e-10       2.441953403620e-14      -3.067601532482e-13       7.420598212488e-15       5.979820634690e-11       6.211386359966e-12      -6.966641946080e-15 
   51       2.495539648087e-10       2.570877000432e-14      -3.408846980101e-13       7.603377705411e-15       5.730787282539e-11       5.979681889587e-12      -7.128904346756e-15 
   52       2.514142847120e-10       2.703628476268e-14      -3.764225109629e-13       7.783051836366e-15       5.495594359074e-11       5.764997009791e-12      -7.329853030125e-15 
   53       2.533028682772e-10       2.840186602193e-14      -4.133821845980e-13       7.959417556718e-15       5.273526943597e-11       5.564025218446e-12      -7.547373406941e-15 
   54       2.552092804844e-10       2.980523302167e-14      -4.517732168809e-13       8.132279864165e-15       5.063309217574e-11       5.372474287637e-12      -7.755499370480e-15 
   55       2.571229725384e-10       3.124606118431e-14      -4.916051541811e-13       8.301454127666e-15       4.863499354512e-11       5.186187362359e-12      -7.930898815408e-15 
   56       2.590479031554e-10       3.272406802627e-14      -5.328844246865e-13       8.466772894057e-15       4.673870464905e-11       5.004959942346e-12      -8.074644943284e-15 
   57       2.609910293992e-10       3.423894493615e-14      -5.756169829194e-13       8.628081418048e-15       4.494310472330e-11       4.829573600159e-12      -8.195526137239e-15 
   58       2.629579740459e-10       3.579033128433e-14      -6.198093582777e-13       8.785236289260e-15       4.324403396082e-11       4.660692670668e-12      -8.303918973797e-15 
   59       2.649529052573e-10       3.737781337932e-14      -6.654687668092e-13       8.938105877080e-15       4.163410589826e-11       4.498854423734e-12      -8.411861336920e-15 
   60       2.669784162555e-10       3.900092342411e-14      -7.126032229847e-13       9.086570775524e-15       4.010251980242e-11       4.344459236887e-12      -8.533125532056e-15 
   61       2.690361648499e-10       4.065912848697e-14      -7.612170781000e-13       9.230521785059e-15       3.863806530298e-11       4.197745748370e-12      -8.679364540394e-15 
   62       2.711292319785e-10       4.235179688211e-14      -8.112962123595e-13       9.369852322310e-15       3.723934882798e-11       4.058732031334e-12      -8.847374557525e-15 
   63       2.732600814549e-10       4.407822235645e-14      -8.628197022146e-13       9.504465088287e-15       3.590654012451e-11       3.927243716716e-12      -9.029090125514e-15 
   64       2.754297525202e-10       4.583763207573e-14      -9.157640677627e-13       9.634274740528e-15       3.463829794982e-11       3.802917747929e-12      -9.215208241260e-15 
   65       2.776377636257e-10       4.762918526406e-14      -9.701032394114e-13       9.759208259811e-15       3.343168374538e-11       3.685192076978e-12      -9.395136874247e-15 
   66       2.798820162168e-10       4.945197184334e-14      -1.025808524543e-12       9.879205316860e-15       3.228207531091e-11       3.573295360580e-12      -9.556943484305e-15 
   67       2.821586985167e-10       5.130501107285e-14      -1.082848574178e-12       9.994218639056e-15       3.118308047846e-11       3.466236656283e-12      -9.687303539363e-15 
   68       2.844640238107e-10       5.318725935972e-14      -1.141192116793e-12       1.010420559551e-14       3.012826109856e-11       3.363053799162e-12      -9.774660657790e-15 
   69       2.868000693790e-10       5.509763856935e-14      -1.200816877543e-12       1.020910015264e-14       2.911690360639e-11       3.263640005687e-12      -9.819565676290e-15 
   70       2.891699532740e-10       5.703501103374e-14      -1.261702414726e-12       1.030883586871e-14       2.814926801696e-11       3.168067020787e-12      -9.826349689981e-15 
   71       2.915760560874e-10       5.899816978231e-14      -1.323827549299e-12       1.040335431224e-14       2.722484176050e-11       3.076337634969e-12      -9.800127896450e-15 
   72       2.940199716516e-10       6.098583741595e-14      -1.387170402315e-12       1.049260520414e-14       2.634229965613e-11       2.988381996312e-12      -9.746830252249e-15 
   73       2.965024577417e-10       6.299666498109e-14      -1.451708432359e-12       1.057654655982e-14       2.549946388541e-11       2.904053922454e-12      -9.673232129384e-15 
   74       2.990233867771e-10       6.502923084376e-14      -1.517418472980e-12       1.065514483128e-14       2.469326396592e-11       2.823127212586e-12      -9.586984971810e-15 
   75       3.015816965235e-10       6.708203956366e-14      -1.584276770131e-12       1.072837504927e-14       2.391969672491e-11       2.745291959442e-12      -9.496646951918e-15 
   76       3.041762414431e-10       6.915356815518e-14      -1.652257951584e-12       1.079622068440e-14       2.317482402355e-11       2.670237886844e-12      -9.409857233979e-15 
   77       3.068086349526e-10       7.124241709848e-14      -1.721331635478e-12       1.085867288725e-14       2.245806445637e-11       2.597930059550e-12      -9.327406631887e-15 
   78       3.094808383078e-10       7.334718494839e-14      -1.791465268461e-12       1.091573136722e-14       2.176943197806e-11       2.528376983649e-12      -9.248136380445e-15 
   79       3.121942756045e-10       7.546642323861e-14      -1.862625154130e-12       1.096740479541e-14       2.110853296066e-11       2.461546168583e-12      -9.170691316514e-15 
   80       3.149498029484e-10       7.759863632754e-14      -1.934776468559e-12       1.101371094094e-14       2.047454744711e-11       2.397362223672e-12      -9.093512468654e-15 
   81       3.177476776257e-10       7.974228124402e-14      -2.007883275843e-12       1.105467680730e-14       1.986621040480e-11       2.335704954630e-12      -9.014829646781e-15 
   82       3.205875272732e-10       8.189576753312e-14      -2.081908543625e-12       1.109033876869e-14       1.928179297903e-11       2.276407460086e-12      -8.932654031809e-15 
   83       3.234683190486e-10       8.405745710190e-14      -2.156814158633e-12       1.112074270644e-14       1.871908374653e-11       2.219254228106e-12      -8.844770765301e-15 
   84       3.263889908382e-10       8.622567085805e-14      -2.232560141823e-12       1.114593925267e-14       1.817592918904e-11       2.164033944531e-12      -8.749353545797e-15 
   85       3.293505326415e-10       8.839871022816e-14      -2.309102110268e-12       1.116596831690e-14       1.765199912499e-11       2.110712146263e-12      -8.646941715966e-15 
   86       3.323541953155e-10       9.057483894057e-14      -2.386393421029e-12       1.118087223239e-14       1.714728093900e-11       2.059283833381e-12      -8.538778872025e-15 
   87       3.354008398038e-10       9.275227651015e-14      -2.464385936191e-12       1.119070047397e-14       1.666153717360e-11       2.009720332713e-12      -8.426222997272e-15 
   88       3.384909174332e-10       9.492919819825e-14      -2.543030024945e-12       1.119550971222e-14       1.619429618143e-11       1.961968313882e-12      -8.310749505631e-15 
   89       3.416244502112e-10       9.710373497265e-14      -2.622274565673e-12       1.119536386756e-14       1.574484277735e-11       1.915948805356e-12      -8.193954285192e-15 
   90       3.448010111222e-10       9.927397346750e-14      -2.702066948028e-12       1.119033416437e-14       1.531220889069e-11       1.871556210488e-12      -8.077556741757e-15 
   91       3.480197044253e-10       1.014379559432e-13      -2.782353075017e-12       1.118049918516e-14       1.489516421734e-11       1.828657323569e-12      -7.963402842376e-15 
   92       3.512791459505e-10       1.035936802465e-13      -2.863077365088e-12       1.116594492462e-14       1.449220687197e-11       1.787090345869e-12      -7.853468158893e-15 
   93       3.545780113927e-10       1.057391458076e-13      -2.944183879760e-12       1.114676093829e-14       1.410192158923e-11       1.746704372289e-12      -7.749460042822e-15 
   94       3.579168183175e-10       1.078724996333e-13      -3.025619896014e-12       1.112302800803e-14       1.372413625727e-11       1.707486781897e-12      -7.651549096223e-15 
   95       3.612963769870e-10       1.099919122993e-13      -3.107332877541e-12       1.109482871286e-14       1.335892285311e-11       1.669453276855e-12      -7.559451653421e-15 
   96       3.647172344975e-10       1.120955344534e-13      -3.189269414365e-12       1.106225116972e-14       1.300624114734e-11       1.632608696294e-12      -7.472811224020e-15 
   97       3.681796628731e-10       1.141814974073e-13      -3.271375240372e-12       1.102538903394e-14       1.266593440158e-11       1.596946587888e-12      -7.391196033793e-15 
   98       3.716836471593e-10       1.162479137283e-13      -3.353595250844e-12       1.098434149979e-14       1.233772506592e-11       1.562448779434e-12      -7.314096565562e-15 
   99       3.752288735171e-10       1.182928778315e-13      -3.435873519995e-12       1.093921330099e-14       1.202121047641e-11       1.529084950437e-12      -7.240923100084e-15 
  100       3.788147173165e-10       1.203144665714e-13      -3.518153318500e-12       1.089011471121e-14       1.171585855247e-11       1.496812203685e-12      -7.171003256933e-15 
  101       3.824402312302e-10       1.223107398340e-13      -3.600377131030e-12       1.083716154459e-14       1.142100349437e-11       1.465574636828e-12      -7.103579535384e-15 
  102       3.861041333274e-10       1.242797411285e-13      -3.682486673787e-12       1.078047515626e-14       1.113584148069e-11       1.435302913963e-12      -7.037806855300e-15 
  103       3.898047951680e-10       1.262194981794e-13      -3.764422912035e-12       1.072018244287e-14       1.085942636575e-11       1.405913837207e-12      -6.972750098010e-15 
  104       3.935406743514e-10       1.281280646615e-13      -3.846125970152e-12       1.065641109959e-14       1.059088487642e-11       1.377329923094e-12      -6.907574864219e-15 
  105       3.973117043572e-10       1.300036505523e-13      -3.927534810195e-12       1.058927466058e-14       1.033010457672e-11       1.349542066265e-12      -6.842154391640e-15 
  106       4.011180711290e-10       1.318445105735e-13      -4.008587542400e-12       1.051888542926e-14       1.007713124867e-11       1.322554581433e-12      -6.776540420261e-15 
  107       4.049597784474e-10       1.336489056520e-13      -4.089221544937e-12       1.044535899034e-14       9.831955824146e-12       1.296365748416e-12      -6.710776964725e-15 
