# dimensionless [l(l+1)/2pi] C_l's for scalar mode
# for l=2 to 3000, i.e. number of multipoles equal to 2999
#
# -> if you prefer output in CAMB/HealPix/LensPix units/order, set 'format' to 'camb' in input file
# -> if you don't want to see such a header, set 'headers' to 'no' in input file
# -> for CMB lensing (phi), these are C_l^phi-phi for the lensing potential.
#    Remember the conversion factors:
#    C_l^dd (deflection) = l(l+1) C_l^phi-phi
#    C_l^gg (shear/convergence) = 1/4 (l(l+1))^2 C_l^phi-phi
#
# 1:l     2:TT                     3:EE                     4:TE                     5:BB                     6:phiphi                 7:TPhi                   8:Ephi               
    2       1.415282580267e-10       5.918823674217e-15       4.272866733741e-13       0.000000000000e+00       8.509235053571e-09       4.559979651508e-10      -2.223935838334e-12 
    3       1.337498870841e-10       9.229600022136e-15       5.178770768239e-13       0.000000000000e+00       5.224681450374e-09       3.250434738946e-10      -1.874099658467e-12 
    4       1.260985658665e-10       9.912931743023e-15       5.195274360389e-13       0.000000000000e+00       3.635568989893e-09       2.472117586159e-10      -1.420689916529e-12 
    5       1.201177391574e-10       8.395586532578e-15       4.733007724508e-13       0.000000000000e+00       2.716135435421e-09       1.958934691205e-10      -9.881742139652e-13 
    6       1.157909245911e-10       5.918813254673e-15       4.060154594865e-13       0.000000000000e+00       2.123255981107e-09       1.597595868195e-10      -6.176256428107e-13 
    7       1.128448383804e-10       3.617797398118e-15       3.351515266623e-13       0.000000000000e+00       1.714022489233e-09       1.331788530714e-10      -3.258539096835e-13 
    8       1.109255040205e-10       2.058448043927e-15       2.706308132032e-13       0.000000000000e+00       1.417126265983e-09       1.129246824861e-10      -1.157511131768e-13 
    9       1.098150049284e-10       1.261221827491e-15       2.176340332147e-13       0.000000000000e+00       1.193370369363e-09       9.702843199229e-11       1.874462133325e-14 
   10       1.093175488608e-10       9.590486904778e-16       1.782698293058e-13       0.000000000000e+00       1.019841790297e-09       8.432270767393e-11       8.958150217210e-14 
   11       1.092947623422e-10       8.597072841325e-16       1.525239539838e-13       0.000000000000e+00       8.565541420738e-10       7.435052828092e-11       1.115309696108e-13 
   12       1.096848403855e-10       7.875931615690e-16       1.387448764262e-13       0.000000000000e+00       7.484166499669e-10       6.582647398855e-11       1.012331027407e-13 
   13       1.103419176385e-10       6.960131146054e-16       1.344234145960e-13       0.000000000000e+00       6.596499742470e-10       5.878189937392e-11       7.278107185652e-14 
   14       1.111869096741e-10       6.089747848151e-16       1.368592806597e-13       0.000000000000e+00       5.857928198864e-10       5.267074801924e-11       3.760390855277e-14 
   15       1.122351962013e-10       5.587666590426e-16       1.434543353428e-13       0.000000000000e+00       5.236277906390e-10       4.754982018687e-11       4.579001964328e-15 
   16       1.134853630628e-10       5.549077970099e-16       1.520240348133e-13       0.000000000000e+00       4.707754503172e-10       4.322667900841e-11      -2.115101060587e-14 
   17       1.148000572155e-10       5.854152791139e-16       1.610686060917e-13       0.000000000000e+00       4.254384248282e-10       3.949943100587e-11      -3.736166678091e-14 
   18       1.162336992325e-10       6.319142498666e-16       1.696305494845e-13       0.000000000000e+00       3.860874810491e-10       3.614073752714e-11      -4.431203879883e-14 
   19       1.177973213638e-10       6.889580674936e-16       1.774194481532e-13       0.000000000000e+00       3.521015769557e-10       3.314534032752e-11      -4.350124630044e-14 
   20       1.194116275098e-10       7.558608625357e-16       1.843738500698e-13       0.000000000000e+00       3.221684019951e-10       3.051510226124e-11      -3.755364082781e-14 
   21       1.210909795533e-10       8.400197661569e-16       1.907931679582e-13       0.000000000000e+00       2.958179801514e-10       2.821650411620e-11      -2.883397268964e-14 
   22       1.228462395714e-10       9.512516669722e-16       1.971277832652e-13       0.000000000000e+00       2.724208526477e-10       2.616383328376e-11      -1.993868028899e-14 
   23       1.246628375628e-10       1.091960738477e-15       2.036149058848e-13       0.000000000000e+00       2.516551955390e-10       2.431493964288e-11      -1.240902220766e-14 
   24       1.265015529832e-10       1.261269468104e-15       2.104065489716e-13       0.000000000000e+00       2.330404991632e-10       2.262321050654e-11      -7.388009156229e-15 
   25       1.283815339577e-10       1.457239351773e-15       2.175379819390e-13       0.000000000000e+00       2.163580083081e-10       2.109108325699e-11      -5.057890696323e-15 
   26       1.303218287904e-10       1.677219104364e-15       2.249425470989e-13       0.000000000000e+00       2.013061622798e-10       1.971980687935e-11      -5.100958173163e-15 
   27       1.323104235815e-10       1.920559295374e-15       2.323571876943e-13       0.000000000000e+00       1.877044277017e-10       1.849083443947e-11      -6.780170305444e-15 
   28       1.343179379881e-10       2.187058439509e-15       2.394190306718e-13       0.000000000000e+00       1.753182211803e-10       1.737091612801e-11      -9.146744447528e-15 
   29       1.363517945418e-10       2.476867723883e-15       2.458505790685e-13       0.000000000000e+00       1.640842662676e-10       1.634982218372e-11      -1.167379512676e-14 
   30       1.384204361094e-10       2.790080629387e-15       2.513537223474e-13       0.000000000000e+00       1.538819143540e-10       1.541380101807e-11      -1.387118146977e-14 
   31       1.405220056379e-10       3.126816180871e-15       2.556219329477e-13       0.000000000000e+00       1.445030478193e-10       1.454171429136e-11      -1.524246361282e-14 
   32       1.426590145091e-10       3.488132020328e-15       2.585439812083e-13       0.000000000000e+00       1.358993000157e-10       1.373201235291e-11      -1.570694674485e-14 
   33       1.448265130441e-10       3.875462632901e-15       2.600765809948e-13       0.000000000000e+00       1.280099313870e-10       1.298437082377e-11      -1.533827662352e-14 
   34       1.470134898521e-10       4.290362254946e-15       2.602033223955e-13       0.000000000000e+00       1.207246393488e-10       1.229397495524e-11      -1.427390705898e-14 
   35       1.492259856615e-10       4.734390026281e-15       2.589697410815e-13       0.000000000000e+00       1.140061503229e-10       1.165828382234e-11      -1.276381431530e-14 
   36       1.514704522927e-10       5.209200240936e-15       2.564641969721e-13       0.000000000000e+00       1.078005472943e-10       1.107171803545e-11      -1.114798898617e-14 
   37       1.537481842106e-10       5.716376595206e-15       2.527794004459e-13       0.000000000000e+00       1.020270481456e-10       1.052604628444e-11      -9.771455784240e-15 
   38       1.560597706184e-10       6.256730980779e-15       2.479038108651e-13       0.000000000000e+00       9.667073974090e-11       1.001949625405e-11      -8.717034263729e-15 
   39       1.584009199352e-10       6.830767919183e-15       2.417954544253e-13       0.000000000000e+00       9.171463740267e-11       9.550080133168e-12      -7.986641252886e-15 
   40       1.607604177744e-10       7.438860747823e-15       2.344106320038e-13       0.000000000000e+00       8.711147719614e-11       9.112823656143e-12      -7.571674569376e-15 
   41       1.631254871678e-10       8.081317906026e-15       2.257011126502e-13       0.000000000000e+00       8.280018548501e-11       8.701483987364e-12      -7.444932378514e-15 
   42       1.655015636561e-10       8.758629451645e-15       2.156053154488e-13       0.000000000000e+00       7.876808521369e-11       8.314998925236e-12      -7.535419677595e-15 
   43       1.678978403247e-10       9.471285595781e-15       2.040537668088e-13       0.000000000000e+00       7.500449413241e-11       7.952700946699e-12      -7.743791619267e-15 
   44       1.703215542167e-10       1.021970453183e-14       1.909709122193e-13       0.000000000000e+00       7.148205841331e-11       7.612400390073e-12      -7.947419348694e-15 
   45       1.727775146782e-10       1.100426631311e-14       1.762846183614e-13       0.000000000000e+00       6.816652721888e-11       7.291239240327e-12      -8.029349336851e-15 
   46       1.752671101188e-10       1.182543562821e-14       1.599591573269e-13       0.000000000000e+00       6.505268885523e-11       6.988847213068e-12      -7.978823137212e-15 
   47       1.777885785139e-10       1.268366918710e-14       1.419712963338e-13       0.000000000000e+00       6.213692034563e-11       6.704919627483e-12      -7.818414279044e-15 
   48       1.803369467290e-10       1.357937955261e-14       1.223012973273e-13       0.000000000000e+00       5.940634821544e-11       6.438257116204e-12      -7.576602213783e-15 
   49       1.829037674557e-10       1.451293346618e-14       1.009330281761e-13       0.000000000000e+00       5.683816057281e-11       6.186698679957e-12      -7.288113349397e-15 
   50       1.854804790711e-10       1.548461365599e-14       7.785730624842e-14       0.000000000000e+00       5.440647803385e-11       5.947787967774e-12      -6.989926421159e-15 
   51       1.880701706748e-10       1.649449592383e-14       5.308274110492e-14       0.000000000000e+00       5.210676116699e-11       5.721140640523e-12      -6.707219122880e-15 
   52       1.906785558173e-10       1.754253580087e-14       2.662802714259e-14       0.000000000000e+00       4.993683906282e-11       5.506603882303e-12      -6.464196346389e-15 
   53       1.933105383142e-10       1.862859883728e-14      -1.480774489977e-15       0.000000000000e+00       4.788960520275e-11       5.303547667076e-12      -6.288226196741e-15 
   54       1.959701196736e-10       1.975245720953e-14      -3.120997258378e-14       0.000000000000e+00       4.595268524999e-11       5.110832318049e-12      -6.209976995347e-15 
   55       1.986602485091e-10       2.091385696215e-14      -6.253001111414e-14       0.000000000000e+00       4.411221272940e-11       4.927170757260e-12      -6.254266700883e-15 
   56       2.013825370475e-10       2.211274706646e-14      -9.545479080821e-14       0.000000000000e+00       4.236601550683e-11       4.752394954561e-12      -6.409635323599e-15 
   57       2.041373120469e-10       2.334910132247e-14      -1.300116546928e-13       0.000000000000e+00       4.071312322423e-11       4.586447269463e-12      -6.651453617257e-15 
   58       2.069235738718e-10       2.462285208313e-14      -1.662304162488e-13       0.000000000000e+00       3.914977800274e-11       4.428996633714e-12      -6.950328442814e-15 
   59       2.097389016598e-10       2.593388961372e-14      -2.041435647468e-13       0.000000000000e+00       3.766926228137e-11       4.279421488227e-12      -7.271877917709e-15 
   60       2.125793584888e-10       2.728206145113e-14      -2.437864705835e-13       0.000000000000e+00       3.626172665561e-11       4.136792719999e-12      -7.576506565144e-15 
   61       2.154410375432e-10       2.866714175724e-14      -2.851900056354e-13       0.000000000000e+00       3.491692511993e-11       4.000143801013e-12      -7.828490982968e-15 
   62       2.183253207057e-10       3.008873278992e-14      -3.283560041431e-13       0.000000000000e+00       3.363352771543e-11       3.869390662753e-12      -8.026128655261e-15 
   63       2.212346374014e-10       3.154634007860e-14      -3.732766330645e-13       0.000000000000e+00       3.241160221560e-11       3.744588958335e-12      -8.177988161026e-15 
   64       2.241708858367e-10       3.303939891745e-14      -4.199414563851e-13       0.000000000000e+00       3.124981284780e-11       3.625657287429e-12      -8.294264974718e-15 
   65       2.271353902331e-10       3.456727277265e-14      -4.683373997880e-13       0.000000000000e+00       3.014534038165e-11       3.512369245889e-12      -8.386852031267e-15 
   66       2.301288580623e-10       3.612925168964e-14      -5.184487153247e-13       0.000000000000e+00       2.909380221742e-11       3.404345475376e-12      -8.469410291109e-15 
   67       2.331513372806e-10       3.772455070036e-14      -5.702569460850e-13       0.000000000000e+00       2.808917247439e-11       3.301045712981e-12      -8.557439305217e-15 
   68       2.362026718393e-10       3.935232122233e-14      -6.237409415354e-13       0.000000000000e+00       2.712539129093e-11       3.201917195939e-12      -8.664422143588e-15 
   69       2.392840709874e-10       4.101169149807e-14      -6.788769861139e-13       0.000000000000e+00       2.620175000930e-11       3.106892565947e-12      -8.789195371472e-15 
   70       2.423967825863e-10       4.270173152613e-14      -7.356386333440e-13       0.000000000000e+00       2.531845862796e-11       3.015979034517e-12      -8.926134905482e-15 
   71       2.455415934855e-10       4.442143955644e-14      -7.939966240484e-13       0.000000000000e+00       2.447501708587e-11       2.929107073780e-12      -9.068825915453e-15 
   72       2.487187995007e-10       4.616974082979e-14      -8.539188523157e-13       0.000000000000e+00       2.367017855325e-11       2.846126464958e-12      -9.210032989559e-15 
   73       2.519281753923e-10       4.794548631743e-14      -9.153703314660e-13       0.000000000000e+00       2.290191272227e-11       2.766802346849e-12      -9.341670299431e-15 
   74       2.551689448431e-10       4.974745146050e-14      -9.783131600176e-13       0.000000000000e+00       2.216736909776e-11       2.690811264291e-12      -9.454771765277e-15 
   75       2.584397504372e-10       5.157433490962e-14      -1.042706487653e-12       0.000000000000e+00       2.146284028801e-11       2.617737216647e-12      -9.539461220999e-15 
   76       2.617392427087e-10       5.342478904592e-14      -1.108509144257e-12       0.000000000000e+00       2.078468226673e-11       2.547176641080e-12      -9.587370667234e-15 
   77       2.650680376647e-10       5.529752075597e-14      -1.175688155750e-12       0.000000000000e+00       2.013235004542e-11       2.479084199070e-12      -9.599470087183e-15 
   78       2.684270633412e-10       5.719120682902e-14      -1.244211726539e-12       0.000000000000e+00       1.950585144909e-11       2.413483159577e-12      -9.579617865094e-15 
   79       2.718169553525e-10       5.910446320680e-14      -1.314046734452e-12       0.000000000000e+00       1.890482244484e-11       2.350360368224e-12      -9.532259400212e-15 
   80       2.752380395644e-10       6.103584437472e-14      -1.385158751315e-12       0.000000000000e+00       1.832851005609e-11       2.289664529576e-12      -9.462447471923e-15 
   81       2.786903147666e-10       6.298384275316e-14      -1.457512063523e-12       0.000000000000e+00       1.777575527672e-11       2.231304489411e-12      -9.375862604900e-15 
   82       2.821734353454e-10       6.494688808864e-14      -1.531069692616e-12       0.000000000000e+00       1.724497598533e-11       2.175147516988e-12      -9.278833434243e-15 
   83       2.856866939571e-10       6.692334684509e-14      -1.605793415856e-12       0.000000000000e+00       1.673414985940e-11       2.121017587325e-12      -9.178357070629e-15 
   84       2.892293775652e-10       6.891156139844e-14      -1.681642525591e-12       0.000000000000e+00       1.624130586959e-11       2.068739171589e-12      -9.080607899219e-15 
   85       2.928019413262e-10       7.090997641950e-14      -1.758569825987e-12       0.000000000000e+00       1.576612980676e-11       2.018280711951e-12      -8.986135328738e-15 
   86       2.964049984457e-10       7.291703242399e-14      -1.836525007274e-12       0.000000000000e+00       1.530859482886e-11       1.969631893043e-12      -8.893903567883e-15 
   87       3.000389532266e-10       7.493112789123e-14      -1.915455847341e-12       0.000000000000e+00       1.486846813332e-11       1.922759309763e-12      -8.802727443108e-15 
   88       3.037039900167e-10       7.695061932440e-14      -1.995308211103e-12       0.000000000000e+00       1.444530241879e-11       1.877605514391e-12      -8.711267359287e-15 
   89       3.074000621569e-10       7.897382131068e-14      -2.076026049889e-12       0.000000000000e+00       1.403842734693e-11       1.834088063699e-12      -8.618024260388e-15 
   90       3.111268809285e-10       8.099900658150e-14      -2.157551400814e-12       0.000000000000e+00       1.364694100413e-11       1.792098566071e-12      -8.521334590140e-15 
   91       3.148839045015e-10       8.302440607268e-14      -2.239824386159e-12       0.000000000000e+00       1.326970136331e-11       1.751501728614e-12      -8.419365252704e-15 
   92       3.186703268821e-10       8.504820898463e-14      -2.322783212748e-12       0.000000000000e+00       1.290531774566e-11       1.712134404275e-12      -8.310108573343e-15 
   93       3.224853532885e-10       8.706858439068e-14      -2.406365261743e-12       0.000000000000e+00       1.255248076261e-11       1.673845429318e-12      -8.191992760710e-15 
   94       3.263290976595e-10       8.908374964868e-14      -2.490510546872e-12       0.000000000000e+00       1.221102745141e-11       1.636624059232e-12      -8.065829265129e-15 
   95       3.302018003252e-10       9.109191243767e-14      -2.575158777587e-12       0.000000000000e+00       1.188102129507e-11       1.600489177685e-12      -7.933150348724e-15 
   96       3.341035465813e-10       9.309125047773e-14      -2.660248329149e-12       0.000000000000e+00       1.156242417615e-11       1.565449839627e-12      -7.795623044099e-15 
   97       3.380342595688e-10       9.507991188603e-14      -2.745716256968e-12       0.000000000000e+00       1.125509248479e-11       1.531504878325e-12      -7.655052563896e-15 
   98       3.419936931533e-10       9.705601553274e-14      -2.831498310953e-12       0.000000000000e+00       1.095877322670e-11       1.498642512400e-12      -7.513385710358e-15 
   99       3.459814248050e-10       9.901765139706e-14      -2.917528949856e-12       0.000000000000e+00       1.067310013124e-11       1.466839952866e-12      -7.372714284884e-15 
  100       3.499968484780e-10       1.009628809232e-13      -3.003741355619e-12       0.000000000000e+00       1.039758975938e-11       1.436063010167e-12      -7.235278497594e-15 
  101       3.540391674899e-10       1.028897373762e-13      -3.090067447720e-12       0.000000000000e+00       1.013163761177e-11       1.406265701213e-12      -7.103470376881e-15 
  102       3.581073874013e-10       1.047962261983e-13      -3.176437897517e-12       0.000000000000e+00       9.874514236749e-12       1.377389856420e-12      -6.979837178978e-15 
  103       3.622003088955e-10       1.066803253644e-13      -3.262782142595e-12       0.000000000000e+00       9.625361338350e-12       1.349364726743e-12      -6.867084797510e-15 
  104       3.663167827288e-10       1.085400417886e-13      -3.349029456282e-12       0.000000000000e+00       9.383386330668e-12       1.322123559642e-12      -6.767441122250e-15 
  105       3.704565291412e-10       1.103735884531e-13      -3.435112289829e-12       0.000000000000e+00       9.148484315035e-12       1.295656723496e-12      -6.680640826895e-15 
  106       3.746194163769e-10       1.121792319818e-13      -3.520963410559e-12       0.000000000000e+00       8.920693258268e-12       1.269965060334e-12      -6.605673444590e-15 
  107       3.788052043088e-10       1.139552396870e-13      -3.606514912635e-12       0.000000000000e+00       8.700001358613e-12       1.245043353750e-12      -6.541395529115e-15 
