# dimensionless total [l(l+1)/2pi] C_l's
# for l=2 to 3000, i.e. number of multipoles equal to 2999
#
# -> if you prefer output in CAMB/HealPix/LensPix units/order, set 'format' to 'camb' in input file
# -> if you don't want to see such a header, set 'headers' to 'no' in input file
# -> for CMB lensing (phi), these are C_l^phi-phi for the lensing potential.
#    Remember the conversion factors:
#    C_l^dd (deflection) = l(l+1) C_l^phi-phi
#    C_l^gg (shear/convergence) = 1/4 (l(l+1))^2 C_l^phi-phi
#
# 1:l     2:TT                     3:EE                     4:TE                     5:BB                     6:phiphi                 7:TPhi                   8:Ephi               
    2       2.842241094988e-10       9.202821271795e-15       5.597322143490e-13       5.557144452709e-15       8.499520604076e-09       4.559219249937e-10      -2.223935803910e-12 
    3       2.421643931621e-10       1.307168776710e-14       4.627878439838e-13       5.966139432352e-15       5.216576119309e-09       3.249671961404e-10      -1.874099389028e-12 
    4       2.229918765491e-10       1.374849798199e-14       4.070320122667e-13       5.524782949593e-15       3.628608337681e-09       2.471334489121e-10      -1.420689072981e-12 
    5       2.120138433070e-10       1.172476697588e-14       3.510770421152e-13       4.605337280424e-15       2.709879885190e-09       1.958133668019e-10      -9.881726188245e-13 
    6       2.046584222569e-10       8.508903999381e-15       2.924152719617e-13       3.545375625589e-15       2.117484739333e-09       1.596798925259e-10      -6.176232752317e-13 
    7       1.997482833201e-10       5.473807902777e-15       2.362459852206e-13       2.572890901429e-15       1.708642019616e-09       1.331002557979e-10      -3.258508423667e-13 
    8       1.964764377572e-10       3.330169876208e-15       1.864338951230e-13       1.802606132000e-15       1.412096116280e-09       1.128464034588e-10      -1.157475422026e-13 
    9       1.943791731069e-10       2.150315207235e-15       1.455524499866e-13       1.264440978911e-15       1.188676265355e-09       9.694959682927e-11       1.874832499568e-14 
   10       1.931153653380e-10       1.654031278210e-15       1.149170885768e-13       9.377362323642e-16       1.015455329958e-09       8.424339151027e-11       8.958483438627e-14 
   11       1.924579086721e-10       1.504416746392e-15       9.460702758725e-14       7.791219912235e-16       8.548280562305e-10       7.429764949701e-11       1.115333976675e-13 
   12       1.922904612920e-10       1.475866726264e-15       8.342873066049e-14       7.410311532670e-16       7.468245663213e-10       6.577422595904e-11       1.012343275957e-13 
   13       1.924324835566e-10       1.480465155333e-15       7.940253744986e-14       7.824767830554e-16       6.581735105230e-10       5.873020807850e-11       7.278099964404e-14 
   14       1.927820174605e-10       1.515488157168e-15       8.030591425655e-14       8.720723999527e-16       5.844170741896e-10       5.261956488473e-11       3.760266477779e-14 
   15       1.933391734755e-10       1.598756422194e-15       8.393807889586e-14       9.888457747837e-16       5.223405488886e-10       4.749918587688e-11       4.576875913068e-15 
   16       1.940929042712e-10       1.733448936995e-15       8.841082756848e-14       1.120511898538e-15       4.695665775807e-10       4.317666782494e-11      -2.115361264830e-14 
   17       1.948996499996e-10       1.906677922868e-15       9.244690709366e-14       1.259803810100e-15       4.242994434762e-10       3.945015539988e-11      -3.736424133682e-14 
   18       1.958047712498e-10       2.100074449198e-15       9.526627764910e-14       1.403927333115e-15       3.850121791064e-10       3.609234465141e-11      -4.431404497184e-14 
   19       1.968353132232e-10       2.308546044958e-15       9.667097780766e-14       1.551859122480e-15       3.510819501871e-10       3.309789628633e-11      -4.350225037395e-14 
   20       1.978923395413e-10       2.532041256335e-15       9.670995044620e-14       1.702923770282e-15       3.211999220265e-10       3.046861613269e-11      -3.755342546666e-14 
   21       1.990002294188e-10       2.777853615204e-15       9.574163264035e-14       1.857028135349e-15       2.948964670208e-10       2.817086913172e-11      -2.883259047911e-14 
   22       2.001644722696e-10       3.055473560883e-15       9.427521898363e-14       2.014380752680e-15       2.715422297205e-10       2.611884401098e-11      -1.993647748754e-14 
   23       2.013777275065e-10       3.367026494866e-15       9.258964898793e-14       2.174947132217e-15       2.508156722626e-10       2.427046263955e-11      -1.240643749496e-14 
   24       2.025948644555e-10       3.711392467238e-15       9.088251433555e-14       2.338672590395e-15       2.322371075864e-10       2.257926258514e-11      -7.385480311023e-15 
   25       2.038408885304e-10       4.086429209021e-15       8.922722293072e-14       2.505439953325e-15       2.155879846240e-10       2.104775359344e-11      -5.055770237224e-15 
   26       2.051317582462e-10       4.489377235680e-15       8.759691347662e-14       2.675134784292e-15       2.005670846437e-10       1.967722889101e-11      -5.099464621279e-15 
   27       2.064579047636e-10       4.919776951660e-15       8.575623566525e-14       2.847565200264e-15       1.869940795768e-10       1.844909397255e-11      -6.779414767342e-15 
   28       2.077860870615e-10       5.377717745943e-15       8.336864351221e-14       3.022535188430e-15       1.746347399382e-10       1.733002731634e-11      -9.146725702250e-15 
   29       2.091314255147e-10       5.863351898959e-15       8.018151280429e-14       3.199871847560e-15       1.634258032184e-10       1.630977174152e-11      -1.167441741340e-14 
   30       2.105032735306e-10       6.376692269668e-15       7.592367478089e-14       3.379431831300e-15       1.532467658318e-10       1.537456727613e-11      -1.387224579522e-14 
   31       2.118918683273e-10       6.917755680709e-15       7.031694897746e-14       3.561081628362e-15       1.438898497349e-10       1.450327167245e-11      -1.524367436821e-14 
   32       2.133047807229e-10       7.487384155690e-15       6.327208402888e-14       3.744615898720e-15       1.353067144158e-10       1.369432020028e-11      -1.570801232859e-14 
   33       2.147392580649e-10       8.086735572408e-15       5.476635982972e-14       3.929809274432e-15       1.274366926981e-10       1.294737332182e-11      -1.533895320804e-14 
   34       2.161805616861e-10       8.717073342405e-15       4.480398203935e-14       4.116431859317e-15       1.201696736782e-10       1.225760763781e-11      -1.427402244554e-14 
   35       2.176379896777e-10       9.379744078132e-15       3.344924896914e-14       4.304230289892e-15       1.134684188441e-10       1.162248660810e-11      -1.276330070203e-14 
   36       2.191183877199e-10       1.007620503335e-14       2.080860147628e-14       4.492939134899e-15       1.072790945529e-10       1.103644536190e-11      -1.114691326232e-14 
   37       2.206196954667e-10       1.080783001194e-14       6.993057379612e-15       4.682295042078e-15       1.015210708926e-10       1.049127163379e-11      -9.770016012212e-15 
   38       2.221466338358e-10       1.157519759098e-14      -7.988813964193e-15       4.872070474266e-15       9.617943233287e-11       9.985200476298e-12      -8.715441276405e-15 
   39       2.236980301424e-10       1.237856082969e-14      -2.415817398848e-14       5.062050907994e-15       9.123720262781e-11       9.516251581732e-12      -7.985077436169e-15 
   40       2.252611568374e-10       1.321802481188e-14      -4.153764544892e-14       5.252026013108e-15       8.664720636648e-11       9.079463208376e-12      -7.570282333508e-15 
   41       2.268193747323e-10       1.409364764411e-14      -6.015787246310e-14       5.441781940193e-15       8.234849693705e-11       8.668604975948e-12      -7.443805805954e-15 
   42       2.283808001902e-10       1.500580743382e-14      -8.007903310734e-14       5.631074772943e-15       7.832840399848e-11       8.282608785948e-12      -7.534608959257e-15 
   43       2.299570480585e-10       1.595493766223e-14      -1.013768451394e-13       5.819648706936e-15       7.457625124723e-11       7.920795914867e-12      -7.743297454593e-15 
   44       2.315547238286e-10       1.694142385129e-14      -1.241376391611e-13       6.007242806566e-15       7.106473849156e-11       7.580965244336e-12      -7.947183138291e-15 
   45       2.331765940809e-10       1.796559614424e-14      -1.484419697909e-13       6.193591861479e-15       6.775968932316e-11       7.260249947108e-12      -8.029258524905e-15 
   46       2.348267849739e-10       1.902771035594e-14      -1.743078781969e-13       6.378430159532e-15       6.465588752014e-11       6.958283195142e-12      -7.978768719474e-15 
   47       2.365062212364e-10       2.012795695974e-14      -2.017319148494e-13       6.561488193321e-15       6.174970338581e-11       6.674769366635e-12      -7.818310791273e-15 
   48       2.382106227536e-10       2.126646275327e-14      -2.307045430398e-13       6.742491218558e-15       5.902828504080e-11       6.408521358966e-12      -7.576393703704e-15 
   49       2.399300641250e-10       2.244328805014e-14      -2.612098861991e-13       6.921158944125e-15       5.646887274225e-11       6.157393855256e-12      -7.287779695158e-15 
   50       2.416536974418e-10       2.365839643714e-14      -2.932249373371e-13       7.097216709918e-15       5.404564972825e-11       5.918944291911e-12      -6.989484596709e-15 
   51       2.433864537286e-10       2.491156088288e-14      -3.267175206002e-13       7.270433316374e-15       5.175407780100e-11       5.692782092441e-12      -6.706706883301e-15 
   52       2.451361135890e-10       2.620242728918e-14      -3.616473396268e-13       7.440592927584e-15       4.959198212128e-11       5.478741753762e-12      -6.463669320306e-15 
   53       2.469083474302e-10       2.753053569619e-14      -3.979661956694e-13       7.607484706154e-15       4.755226885136e-11       5.276179160362e-12      -6.287760051433e-15 
   54       2.487065179964e-10       2.889531618309e-14      -4.356177096015e-13       7.770903043858e-15       4.562259413416e-11       5.083939095615e-12      -6.209669694261e-15 
   55       2.505324582537e-10       3.029618342582e-14      -4.745515621822e-13       7.930651950923e-15       4.378912746200e-11       4.900720841464e-12      -6.254233077723e-15 
   56       2.523894837163e-10       3.173285726888e-14      -5.147709943298e-13       8.086558972350e-15       4.204969491942e-11       4.726355762410e-12      -6.409976159324e-15 
   57       2.542797825685e-10       3.320511461025e-14      -5.562966200089e-13       8.238465132718e-15       4.040332119509e-11       4.560790194320e-12      -6.652244041989e-15 
   58       2.562033498831e-10       3.471269747174e-14      -5.991532232178e-13       8.386221464587e-15       3.884625349081e-11       4.403698553689e-12      -6.951613352633e-15 
   59       2.581578281552e-10       3.625531274346e-14      -6.433700456411e-13       8.529689401177e-15       3.737179002239e-11       4.254466358881e-12      -7.273667180898e-15 
   60       2.601383478363e-10       3.783263192835e-14      -6.889810743035e-13       8.668741169051e-15       3.597010852051e-11       4.112173251378e-12      -7.578770017872e-15 
   61       2.621398646942e-10       3.944425976469e-14      -7.360164405546e-13       8.803259623702e-15       3.463099200494e-11       3.975860853700e-12      -7.831163070021e-15 
   62       2.641651457255e-10       4.108963244166e-14      -7.844737102612e-13       8.933136824834e-15       3.335310904611e-11       3.845445011907e-12      -8.029145012111e-15 
   63       2.662183009500e-10       4.276809597980e-14      -8.343406305090e-13       9.058275836653e-15       3.213652170952e-11       3.720979118493e-12      -8.181297083136e-15 
   64       2.683023661071e-10       4.447893411857e-14      -8.856034551319e-13       9.178591624317e-15       3.097989410023e-11       3.602379560544e-12      -8.297829764019e-15 
   65       2.704192224127e-10       4.622136707336e-14      -9.382469503344e-13       9.294011428945e-15       2.988041279203e-11       3.489417778640e-12      -8.390653444798e-15 
   66       2.725695163159e-10       4.799455029252e-14      -9.922544003146e-13       9.404475142620e-15       2.883370725659e-11       3.381712325755e-12      -8.473449091808e-15 
   67       2.747525792555e-10       4.979757321436e-14      -1.047607612886e-12       9.509935683395e-15       2.783377029258e-11       3.278720926153e-12      -8.561738914864e-15 
   68       2.769674687787e-10       5.162946477863e-14      -1.104286371995e-12       9.610352587782e-15       2.687456111768e-11       3.179889384613e-12      -8.669025583040e-15 
   69       2.792165162335e-10       5.348921403612e-14      -1.162266653872e-12       9.705670442321e-15       2.595536970690e-11       3.085151102249e-12      -8.794143490237e-15 
   70       2.815023570826e-10       5.537575150134e-14      -1.221522057868e-12       9.795836735276e-15       2.507640146004e-11       2.994514975052e-12      -8.931459696775e-15 
   71       2.838268225057e-10       5.728794171653e-14      -1.282024319205e-12       9.880808450392e-15       2.423715483135e-11       2.907913639903e-12      -9.074549264939e-15 
   72       2.861908878356e-10       5.922458218141e-14      -1.343743300457e-12       9.960552268434e-15       2.343638479346e-11       2.825199544990e-12      -9.216165377534e-15 
   73       2.885946209945e-10       6.118440228296e-14      -1.406646983023e-12       1.003504476873e-14       2.267206630144e-11       2.746141020221e-12      -9.348209456438e-15 
   74       2.910371309292e-10       6.316606222519e-14      -1.470701458604e-12       1.010427263069e-14       2.194135775679e-11       2.670418347646e-12      -9.461701281159e-15 
   75       2.935165160482e-10       6.516815195890e-14      -1.535870920684e-12       1.016823283540e-14       2.124056447143e-11       2.597619831869e-12      -9.546749107387e-15 
   76       2.960308631376e-10       6.718921863783e-14      -1.602119687334e-12       1.022692662382e-14       2.056605503352e-11       2.527345487672e-12      -9.594971767624e-15 
   77       2.985815683950e-10       6.922785713324e-14      -1.669418714341e-12       1.028033965425e-14       1.991728408780e-11       2.459548618307e-12      -9.607340942706e-15 
   78       3.011705311351e-10       7.128263415739e-14      -1.737740259813e-12       1.032845857584e-14       1.929425695627e-11       2.394249675786e-12      -9.587721321907e-15 
   79       3.037991274962e-10       7.335206072401e-14      -1.807055990809e-12       1.037127702321e-14       1.869660891612e-11       2.331432474592e-12      -9.540565556987e-15 
   80       3.064681804181e-10       7.543459166301e-14      -1.877337016469e-12       1.040879568993e-14       1.812358820378e-11       2.271042468880e-12      -9.470934660624e-15 
   81       3.091779296187e-10       7.752862513523e-14      -1.948553921141e-12       1.044102240208e-14       1.757403901892e-11       2.212985029668e-12      -9.384518404854e-15 
   82       3.119280015708e-10       7.963250214712e-14      -2.020676797516e-12       1.046797219171e-14       1.704638452851e-11       2.157123722032e-12      -9.287655719494e-15 
   83       3.147173794793e-10       8.174450606549e-14      -2.093675279760e-12       1.048966737042e-14       1.653860987082e-11       2.103278582301e-12      -9.187355090584e-15 
   84       3.175450353444e-10       8.386290295370e-14      -2.167516758797e-12       1.050613773870e-14       1.604875134358e-11       2.051270721086e-12      -9.089800468853e-15 
   85       3.204120123090e-10       8.598607132632e-14      -2.242160615661e-12       1.051742109292e-14       1.557649437648e-11       2.001068401941e-12      -8.995539723999e-15 
   86       3.233196340802e-10       8.811239311531e-14      -2.317563088457e-12       1.052356293760e-14       1.512181053909e-11       1.952662133370e-12      -8.903532228886e-15 
   87       3.262688549180e-10       9.024021495896e-14      -2.393679007747e-12       1.052461643166e-14       1.468446654667e-11       1.906019565834e-12      -8.812587448436e-15 
   88       3.292602407405e-10       9.236784840262e-14      -2.470461799126e-12       1.052064246425e-14       1.426401577154e-11       1.861084547527e-12      -8.721359884451e-15 
   89       3.322939502282e-10       9.449357009959e-14      -2.547863485804e-12       1.051170973055e-14       1.385978975437e-11       1.817776180165e-12      -8.628344020429e-15 
   90       3.353697159283e-10       9.661562201182e-14      -2.625834691182e-12       1.049789480753e-14       1.347088971552e-11       1.775987874758e-12      -8.531869266391e-15 
   91       3.384868253592e-10       9.873221161078e-14      -2.704324641432e-12       1.047928222980e-14       1.309617806636e-11       1.735586407395e-12      -8.430094903694e-15 
   92       3.416441021151e-10       1.008415120782e-13      -2.783281168079e-12       1.045596456538e-14       1.273426992059e-11       1.696410975021e-12      -8.321005029856e-15 
   93       3.448404092607e-10       1.029416799854e-13      -2.862651313173e-12       1.042803654876e-14       1.238386133177e-11       1.658312525940e-12      -8.203021130783e-15 
   94       3.480762871624e-10       1.050309109363e-13      -2.942383243354e-12       1.039557630600e-14       1.204478891461e-11       1.621280568720e-12      -8.076956166308e-15 
   95       3.513525281975e-10       1.071073927035e-13      -3.022424629773e-12       1.035866143288e-14       1.171711463763e-11       1.585333778332e-12      -7.944346400241e-15 
   96       3.546696648430e-10       1.091692889298e-13      -3.102722081844e-12       1.031737468039e-14       1.140079948221e-11       1.550481034659e-12      -7.806863336570e-15 
   97       3.580279579499e-10       1.112147395695e-13      -3.183221158102e-12       1.027180394890e-14       1.109569957609e-11       1.516721031120e-12      -7.666317142348e-15 
   98       3.614273850165e-10       1.132418613287e-13      -3.263866377043e-12       1.022204228243e-14       1.080156232688e-11       1.484041883292e-12      -7.524660070587e-15 
   99       3.648676284626e-10       1.152487481062e-13      -3.344601227987e-12       1.016818786285e-14       1.051802255558e-11       1.452420737540e-12      -7.383989883142e-15 
  100       3.683480639033e-10       1.172334714342e-13      -3.425368181917e-12       1.011034400410e-14       1.024459863007e-11       1.421823379638e-12      -7.246553273610e-15 
  101       3.718677484230e-10       1.191940809190e-13      -3.506108702337e-12       1.004861914646e-14       9.980688598642e-12       1.392203843396e-12      -7.114749290211e-15 
  102       3.754254088490e-10       1.211286046817e-13      -3.586763256121e-12       9.983126850702e-15       9.725566323502e-12       1.363504019282e-12      -6.991132758685e-15 
  103       3.790194300253e-10       1.230350497992e-13      -3.667271324362e-12       9.913985792380e-15       9.478377614268e-12       1.335653263047e-12      -6.878417705179e-15 
  104       3.826482849087e-10       1.249114557918e-13      -3.747572083745e-12       9.841315925701e-15       9.238333647402e-12       1.308584915400e-12      -6.778838924414e-15 
  105       3.863119162800e-10       1.267560623690e-13      -3.827606532116e-12       9.765226397536e-15       9.005329309149e-12       1.282289245467e-12      -6.692131091505e-15 
  106       3.900105206895e-10       1.285671652709e-13      -3.907315671613e-12       9.685825982412e-15       8.779401562324e-12       1.256766962879e-12      -6.617281767992e-15 
  107       3.937441165149e-10       1.303430662557e-13      -3.986639881782e-12       9.603226719741e-15       8.560537941403e-12       1.232012742317e-12      -6.553145292051e-15 
