# Matter power spectrum P(k) at redshift z=0
# for k=1.03892e-05 to 100.018 h/Mpc,
# number of wavenumbers equal to 811
#    1:k (h/Mpc)              2:P (Mpc/h)^3        
       1.038922642939e-05       5.116730619998e+01 
       2.321812845909e-05       1.108985041097e+02 
       3.609173376214e-05       1.695112885672e+02 
       4.904439972694e-05       2.276638177403e+02 
       6.211104704304e-05       2.857256836202e+02 
       7.532746857735e-05       3.439709422173e+02 
       8.873064804492e-05       4.026320526695e+02 
       1.023590926816e-04       4.619218460480e+02 
       1.162531841578e-04       5.220447480856e+02 
       1.304555520066e-04       5.832034994775e+02 
       1.450114738458e-04       6.456037738960e+02 
       1.599693066204e-04       7.094577388766e+02 
       1.753809529236e-04       7.749870535660e+02 
       1.913023661048e-04       8.424255828373e+02 
       2.077940972509e-04       9.120219817406e+02 
       2.249218861034e-04       9.840422355772e+02 
       2.427572963948e-04       1.058772184233e+03 
       2.613783937365e-04       1.136520078112e+03 
       2.808704608154e-04       1.217619115972e+03 
       3.013267399410e-04       1.302429949563e+03 
       3.228491865615e-04       1.391343071645e+03 
       3.455492088576e-04       1.484780959588e+03 
       3.695483575494e-04       1.583199853469e+03 
       3.949789163640e-04       1.687090900192e+03 
       4.219843271948e-04       1.796980418840e+03 
       4.507193653102e-04       1.913428959704e+03 
       4.813499602484e-04       2.037028670514e+03 
       5.140525396193e-04       2.168398571546e+03 
       5.490127597171e-04       2.308177216293e+03 
       5.864234841229e-04       2.457012251886e+03 
       6.264818863382e-04       2.615546528197e+03 
       6.693855925968e-04       2.784400613169e+03 
       7.153278528514e-04       2.964151780429e+03 
       7.644918338936e-04       3.155310236656e+03 
       8.170442633386e-04       3.358293581665e+03 
       8.731288006756e-04       3.573401354990e+03 
       9.328596442615e-04       3.800791740611e+03 
       9.963159659543e-04       4.040462909825e+03 
       1.063537764581e-03       4.292241280239e+03 
       1.134523626239e-03       4.555778436307e+03 
       1.209230679194e-03       4.830557628311e+03 
       1.287576767919e-03       5.115909449950e+03 
       1.369444599257e-03       5.411057239995e+03 
       1.454687391959e-03       5.715126037661e+03 
       1.543135431684e-03       6.027116963366e+03 
       1.634602912099e-03       6.346024548991e+03 
       1.728894515478e-03       6.670833155071e+03 
       1.825811320550e-03       7.000541656457e+03 
       1.925155782887e-03       7.334182735525e+03 
       2.026735681319e-03       7.670838187131e+03 
       2.130367042364e-03       8.009648883430e+03 
       2.235876135455e-03       8.349821231527e+03 
       2.343100676636e-03       8.690629978206e+03 
       2.451890394377e-03       9.031417985501e+03 
       2.562107107073e-03       9.371594295299e+03 
       2.673624445823e-03       9.710631389701e+03 
       2.786327334635e-03       1.004806067130e+04 
       2.900111317649e-03       1.038346812254e+04 
       3.014881802039e-03       1.071649023078e+04 
       3.130553267074e-03       1.104680707146e+04 
       3.247048475047e-03       1.137414264440e+04 
       3.364297708069e-03       1.169825343608e+04 
       3.482238045924e-03       1.201893200722e+04 
       3.600812693636e-03       1.233599792264e+04 
       3.719970362791e-03       1.264929653610e+04 
       3.839664707406e-03       1.295869763251e+04 
       3.959853813072e-03       1.326408946103e+04 
       4.080499736700e-03       1.356538134754e+04 
       4.201568093487e-03       1.386249508555e+04 
       4.323027687306e-03       1.415536899837e+04 
       4.444850180647e-03       1.444395372906e+04 
       4.567009800288e-03       1.472821144709e+04 
       4.689483075068e-03       1.500811142678e+04 
       4.812248602367e-03       1.528363779651e+04 
       4.935286840186e-03       1.555477925054e+04 
       5.058579921982e-03       1.582152696296e+04 
       5.182111491712e-03       1.608388421614e+04 
       5.305866556801e-03       1.634185649355e+04 
       5.429831356981e-03       1.659545682867e+04 
       5.553993247203e-03       1.684469669290e+04 
       5.678340593007e-03       1.708959501752e+04 
       5.802862676925e-03       1.733017648307e+04 
       5.927549614682e-03       1.756646904136e+04 
       6.052392280055e-03       1.779848207478e+04 
       6.177382237451e-03       1.802623691676e+04 
       6.302511681309e-03       1.824978785303e+04 
       6.427773381594e-03       1.846914512909e+04 
       6.553160634691e-03       1.868435887319e+04 
       6.678667219123e-03       1.889546609955e+04 
       6.804287355565e-03       1.910249628120e+04 
       6.930015670697e-03       1.930548750317e+04 
       7.055847164480e-03       1.950447564055e+04 
       7.181777180500e-03       1.969950027377e+04 
       7.307801379070e-03       1.989059456497e+04 
       7.433915712780e-03       2.007780418024e+04 
       7.560116404275e-03       2.026115780323e+04 
       7.686399926014e-03       2.044070686271e+04 
       7.812762981825e-03       2.061648046019e+04 
       7.939202490069e-03       2.078852109419e+04 
       8.065715568266e-03       2.095687035277e+04 
       8.192299519033e-03       2.112156002358e+04 
       8.318951817208e-03       2.128262961906e+04 
       8.445670098062e-03       2.144012208178e+04 
       8.572452146474e-03       2.159407533261e+04 
       8.699295887004e-03       2.174453028428e+04 
       8.826199374763e-03       2.189152144391e+04 
       8.953160787016e-03       2.203508682258e+04 
       9.080178415459e-03       2.217526876820e+04 
       9.207250659091e-03       2.231210679588e+04 
       9.334376017655e-03       2.244563112414e+04 
       9.461553085572e-03       2.257588311816e+04 
       9.588780546346e-03       2.270289894113e+04 
       9.716057167395e-03       2.282671398655e+04 
       9.843381795262e-03       2.294737194470e+04 
       9.970753351189e-03       2.306489796855e+04 
       1.009817082702e-02       2.317933645308e+04 
       1.022563328138e-02       2.329072065827e+04 
       1.035313983621e-02       2.339907328660e+04 
       1.048068967341e-02       2.350443537879e+04 
       1.060828203188e-02       2.360686197441e+04 
       1.073591620467e-02       2.370639030334e+04 
       1.086359153639e-02       2.380300548311e+04 
       1.099130742072e-02       2.389678075551e+04 
       1.111906329821e-02       2.398774689960e+04 
       1.124685865418e-02       2.407590816329e+04 
       1.137469301670e-02       2.416133860915e+04 
       1.150256595483e-02       2.424404499621e+04 
       1.163047707693e-02       2.432406617230e+04 
       1.175842602905e-02       2.440142705908e+04 
       1.188641249350e-02       2.447617167085e+04 
       1.201443618746e-02       2.454831797042e+04 
       1.214249686173e-02       2.461790573504e+04 
       1.227059429957e-02       2.468496239529e+04 
       1.239872831558e-02       2.474954138198e+04 
       1.252689875467e-02       2.481161702533e+04 
       1.265510549116e-02       2.487126869775e+04 
       1.278334842789e-02       2.492850841006e+04 
       1.291162749538e-02       2.498337136805e+04 
       1.303994265110e-02       2.503588117895e+04 
       1.316829387881e-02       2.508605810211e+04 
       1.329668118784e-02       2.513395161067e+04 
       1.342510461258e-02       2.517956760327e+04 
       1.355356421189e-02       2.522295786348e+04 
       1.368206006859e-02       2.526411607108e+04 
       1.381059228906e-02       2.530311259336e+04 
       1.393916100277e-02       2.533993843949e+04 
       1.406776636193e-02       2.537463900092e+04 
       1.419640854111e-02       2.540724290456e+04 
       1.432508773700e-02       2.543777519902e+04 
       1.445380416806e-02       2.546625003805e+04 
       1.458255807434e-02       2.549269101125e+04 
       1.471134971720e-02       2.551714197698e+04 
       1.484017937920e-02       2.553962118415e+04 
       1.496904736387e-02       2.556015230312e+04 
       1.509795399561e-02       2.557877202016e+04 
       1.522689961960e-02       2.559548401426e+04 
       1.535588460169e-02       2.561032753602e+04 
       1.548490932832e-02       2.562332261535e+04 
       1.561397420656e-02       2.563449737409e+04 
       1.574307966400e-02       2.564388074017e+04 
       1.587222614882e-02       2.565148098098e+04 
       1.600141412980e-02       2.565733866478e+04 
       1.613064409636e-02       2.566145219009e+04 
       1.625991655862e-02       2.566387363802e+04 
       1.638923204749e-02       2.566461602835e+04 
       1.651859111480e-02       2.566369314554e+04 
       1.664799433338e-02       2.566115882596e+04 
       1.677744229721e-02       2.565700104721e+04 
       1.690693562161e-02       2.565127922100e+04 
       1.703647494338e-02       2.564394467937e+04 
       1.716606092099e-02       2.563508004980e+04 
       1.729569423481e-02       2.562470808280e+04 
       1.742537558732e-02       2.561282427387e+04 
       1.755510570338e-02       2.559947126354e+04 
       1.768488533045e-02       2.558466111244e+04 
       1.781471523888e-02       2.556841131878e+04 
       1.794459622222e-02       2.555075106763e+04 
       1.807452909752e-02       2.553170511739e+04 
       1.820451470563e-02       2.551127554432e+04 
       1.833455391158e-02       2.548948672114e+04 
       1.846464760492e-02       2.546640457744e+04 
       1.859479670009e-02       2.544198656214e+04 
       1.872500213684e-02       2.541630957713e+04 
       1.885526488061e-02       2.538933548783e+04 
       1.898558592297e-02       2.536109102517e+04 
       1.911596628205e-02       2.533165117926e+04 
       1.924640700304e-02       2.530098784631e+04 
       1.937690915863e-02       2.526913746219e+04 
       1.950747384953e-02       2.523614602077e+04 
       1.963810220498e-02       2.520196656788e+04 
       1.976879538329e-02       2.516667060988e+04 
       1.989955457238e-02       2.513025513851e+04 
       2.003038099040e-02       2.509272429797e+04 
       2.016127588626e-02       2.505414778133e+04 
       2.029224054028e-02       2.501452742533e+04 
       2.042327626483e-02       2.497382308555e+04 
       2.055438440499e-02       2.493209292963e+04 
       2.068556633919e-02       2.488941819104e+04 
       2.081682347996e-02       2.484573906823e+04 
       2.094815727463e-02       2.480107166205e+04 
       2.107956920606e-02       2.475545300739e+04 
       2.121106079346e-02       2.470891665704e+04 
       2.134263359313e-02       2.466146722530e+04 
       2.147428919931e-02       2.461309754877e+04 
       2.160602924503e-02       2.456388715464e+04 
       2.173785540298e-02       2.451375730568e+04 
       2.186976938640e-02       2.446282079645e+04 
       2.200177295002e-02       2.441100746396e+04 
       2.213386789100e-02       2.435840716361e+04 
       2.226605604995e-02       2.430505905258e+04 
       2.239833931193e-02       2.425083826720e+04 
       2.253071960749e-02       2.419593629370e+04 
       2.266319891380e-02       2.414016258922e+04 
       2.279577925570e-02       2.408382629765e+04 
       2.292846270690e-02       2.402665140551e+04 
       2.306125139117e-02       2.396884303678e+04 
       2.319414748354e-02       2.391028755286e+04 
       2.332715321158e-02       2.385104124291e+04 
       2.346027085672e-02       2.379115707865e+04 
       2.359350275556e-02       2.373063673012e+04 
       2.372685130130e-02       2.366948203819e+04 
       2.386031894514e-02       2.360772401788e+04 
       2.399390819777e-02       2.354533188598e+04 
       2.412762163093e-02       2.348242619053e+04 
       2.426146187892e-02       2.341890161713e+04 
       2.439543164029e-02       2.335483637169e+04 
       2.452953367946e-02       2.329014573481e+04 
       2.466377082853e-02       2.322498758680e+04 
       2.479814598899e-02       2.315929728872e+04 
       2.493266213362e-02       2.309317011526e+04 
       2.506732230841e-02       2.302647104679e+04 
       2.520212963448e-02       2.295929394463e+04 
       2.533708731018e-02       2.289166034996e+04 
       2.547219861317e-02       2.282354781387e+04 
       2.560746690259e-02       2.275501857205e+04 
       2.574289562134e-02       2.268610501629e+04 
       2.587848829840e-02       2.261673000459e+04 
       2.601424855124e-02       2.254694113708e+04 
       2.615018008833e-02       2.247675435837e+04 
       2.628628671169e-02       2.240622092037e+04 
       2.642257231958e-02       2.233527726861e+04 
       2.655904090928e-02       2.226398030699e+04 
       2.669569657994e-02       2.219236835414e+04 
       2.683254353554e-02       2.212044989131e+04 
       2.696958608796e-02       2.204810040337e+04 
       2.710682866020e-02       2.197551576176e+04 
       2.724427578962e-02       2.190264791316e+04 
       2.738193213142e-02       2.182941937380e+04 
       2.751980246214e-02       2.175594422268e+04 
       2.765789168337e-02       2.168219298261e+04 
       2.779620482556e-02       2.160814680804e+04 
       2.793474705194e-02       2.153392084829e+04 
       2.807352366270e-02       2.145936184713e+04 
       2.821254009921e-02       2.138460591103e+04 
       2.835180194845e-02       2.130962959402e+04 
       2.849131494763e-02       2.123445602189e+04 
       2.863108498899e-02       2.115907937437e+04 
       2.877111812472e-02       2.108342767184e+04 
       2.891142057220e-02       2.100765068683e+04 
       2.905199871931e-02       2.093168158568e+04 
       2.919285913007e-02       2.085554936558e+04 
       2.933400855045e-02       2.077927806553e+04 
       2.947545391441e-02       2.070282683136e+04 
       2.961720235026e-02       2.062619229382e+04 
       2.975926118717e-02       2.054948799854e+04 
       2.990163796208e-02       2.047262311364e+04 
       3.004434042682e-02       2.039560095419e+04 
       3.018737655555e-02       2.031848935573e+04 
       3.033075455253e-02       2.024131641146e+04 
       3.047448286026e-02       2.016396682978e+04 
       3.061857016788e-02       2.008654612623e+04 
       3.076302542009e-02       2.000909901240e+04 
       3.090785782629e-02       1.993144119975e+04 
       3.105307687032e-02       1.985380769372e+04 
       3.119869232049e-02       1.977605753643e+04 
       3.134471424015e-02       1.969829886573e+04 
       3.149115299874e-02       1.962041885042e+04 
       3.163801928332e-02       1.954251104872e+04 
       3.178532411072e-02       1.946459749776e+04 
       3.193307884017e-02       1.938661891810e+04 
       3.208129518661e-02       1.930866916438e+04 
       3.222998523465e-02       1.923056866286e+04 
       3.237916145315e-02       1.915247094776e+04 
       3.252883671060e-02       1.907434012356e+04 
       3.267902429120e-02       1.899631341479e+04 
       3.282973791180e-02       1.891817597410e+04 
       3.298099173971e-02       1.884010074096e+04 
       3.313280041138e-02       1.876193351519e+04 
       3.328517905210e-02       1.868382890482e+04 
       3.343814329670e-02       1.860568517522e+04 
       3.359170931139e-02       1.852757793213e+04 
       3.374589381675e-02       1.844951017734e+04 
       3.390071411198e-02       1.837144998990e+04 
       3.405618810047e-02       1.829345937502e+04 
       3.421233431678e-02       1.821546579492e+04 
       3.436917195518e-02       1.813744315563e+04 
       3.452672089976e-02       1.805942145744e+04 
       3.468500175632e-02       1.798150240599e+04 
       3.484403588603e-02       1.790361313284e+04 
       3.500384544118e-02       1.782575067242e+04 
       3.516445340293e-02       1.774792611628e+04 
       3.532588362145e-02       1.767016073334e+04 
       3.548816085839e-02       1.759238769595e+04 
       3.565131083206e-02       1.751474071735e+04 
       3.581536026536e-02       1.743709440655e+04 
       3.598033693675e-02       1.735943357473e+04 
       3.614626973450e-02       1.728189933498e+04 
       3.631318871440e-02       1.720433446318e+04 
       3.648112516130e-02       1.712692546095e+04 
       3.665011165467e-02       1.704947122553e+04 
       3.682018213864e-02       1.697215285124e+04 
       3.699137199672e-02       1.689481429302e+04 
       3.716371813175e-02       1.681750670463e+04 
       3.733725905139e-02       1.674031507133e+04 
       3.751203495968e-02       1.666312839907e+04 
       3.768808785517e-02       1.658595876475e+04 
       3.786546163621e-02       1.650888730919e+04 
       3.804420221400e-02       1.643183795099e+04 
       3.822435763412e-02       1.635483461766e+04 
       3.840597820729e-02       1.627785274359e+04 
       3.858911665022e-02       1.620095855010e+04 
       3.877382823744e-02       1.612400515540e+04 
       3.896017096531e-02       1.604712899178e+04 
       3.914820572912e-02       1.597028770729e+04 
       3.933799651479e-02       1.589346738605e+04 
       3.952961060649e-02       1.581666855466e+04 
       3.972311881184e-02       1.573986082986e+04 
       3.991859570646e-02       1.566306082626e+04 
       4.011611989981e-02       1.558625993452e+04 
       4.031577432478e-02       1.550951081620e+04 
       4.051764655330e-02       1.543274009229e+04 
       4.072182914103e-02       1.535589938903e+04 
       4.092842000428e-02       1.527908629656e+04 
       4.113752283270e-02       1.520223455031e+04 
       4.134924754215e-02       1.512535737530e+04 
       4.156371077201e-02       1.504839742386e+04 
       4.178103643268e-02       1.497144338121e+04 
       4.200135630908e-02       1.489434567087e+04 
       4.222481072715e-02       1.481726843466e+04 
       4.245154929133e-02       1.474007338226e+04 
       4.268173170212e-02       1.466278420132e+04 
       4.291552866430e-02       1.458537705188e+04 
       4.315312289772e-02       1.450784663009e+04 
       4.339471026507e-02       1.443016323846e+04 
       4.364050103247e-02       1.435235736104e+04 
       4.389072128219e-02       1.427438197838e+04 
       4.414561449945e-02       1.419626549356e+04 
       4.440544335924e-02       1.411788669611e+04 
       4.467049174356e-02       1.403928395596e+04 
       4.494106702499e-02       1.396042179017e+04 
       4.521750265889e-02       1.388138263366e+04 
       4.550016113459e-02       1.380197221302e+04 
       4.578943734550e-02       1.372229723718e+04 
       4.608576244960e-02       1.364221821823e+04 
       4.638960830631e-02       1.356173883040e+04 
       4.670149259324e-02       1.348086504168e+04 
       4.702198472785e-02       1.339952599377e+04 
       4.735171274612e-02       1.331774565385e+04 
       4.769137132355e-02       1.323530873458e+04 
       4.804173116565e-02       1.315236606831e+04 
       4.840365004720e-02       1.306867288300e+04 
       4.877808584554e-02       1.298433060879e+04 
       4.916611199626e-02       1.289920698219e+04 
       4.956893590514e-02       1.281312943788e+04 
       4.998792098423e-02       1.272614427506e+04 
       5.042461315084e-02       1.263807211656e+04 
       5.088077284597e-02       1.254879317669e+04 
       5.135841390588e-02       1.245820333411e+04 
       5.185985097268e-02       1.236614381591e+04 
       5.238775757251e-02       1.227235905322e+04 
       5.294523753990e-02       1.217669295520e+04 
       5.353591313136e-02       1.207880656583e+04 
       5.416403393891e-02       1.197844980616e+04 
       5.483461152136e-02       1.187510633869e+04 
       5.555358534914e-02       1.176834871357e+04 
       5.632802581481e-02       1.165750850871e+04 
       5.716637887099e-02       1.154174758835e+04 
       5.807875266862e-02       1.141994822106e+04 
       5.907723625763e-02       1.129072303160e+04 
       6.017621843407e-02       1.115215332222e+04 
       6.139263231739e-02       1.100167854676e+04 
