# dimensionless [l(l+1)/2pi] C_l's for scalar mode
# for l=2 to 3000, i.e. number of multipoles equal to 2999
#
# -> if you prefer output in CAMB/HealPix/LensPix units/order, set 'format' to 'camb' in input file
# -> if you don't want to see such a header, set 'headers' to 'no' in input file
# -> for CMB lensing (phi), these are C_l^phi-phi for the lensing potential.
#    Remember the conversion factors:
#    C_l^dd (deflection) = l(l+1) C_l^phi-phi
#    C_l^gg (shear/convergence) = 1/4 (l(l+1))^2 C_l^phi-phi
#
# 1:l     2:TT                     3:EE                     4:TE                     5:BB                     6:phiphi                 7:TPhi                   8:Ephi               
    2       1.434898518189e-10       5.120179877339e-15       3.941693235378e-13       0.000000000000e+00       8.285012666911e-09       4.688307933724e-10      -2.071254441887e-12 
    3       1.352896460953e-10       7.272963050692e-15       4.620913081950e-13       0.000000000000e+00       5.162901437943e-09       3.331625818027e-10      -1.658658226134e-12 
    4       1.274903569730e-10       7.071366650785e-15       4.487734609161e-13       0.000000000000e+00       3.600562801805e-09       2.524316342595e-10      -1.178665011414e-12 
    5       1.215462903859e-10       5.382209542245e-15       3.963858356439e-13       0.000000000000e+00       2.691258259214e-09       1.995298676620e-10      -7.499630424342e-13 
    6       1.173478736646e-10       3.407934395163e-15       3.302963604026e-13       0.000000000000e+00       2.103098655567e-09       1.624711798193e-10      -4.081125131506e-13 
    7       1.145504699578e-10       1.921982315032e-15       2.661615863030e-13       0.000000000000e+00       1.696701011464e-09       1.352315802586e-10      -1.620121967355e-13 
    8       1.127566468816e-10       1.102595493567e-15       2.121133152077e-13       0.000000000000e+00       1.403101799910e-09       1.145315889246e-10      -5.425685222545e-15 
    9       1.117773706653e-10       7.630678911171e-16       1.714817053492e-13       0.000000000000e+00       1.183229763863e-09       9.844159340550e-11       7.639807807309e-14 
   10       1.114307496652e-10       6.416369784850e-16       1.445257216117e-13       0.000000000000e+00       1.013196959791e-09       8.566568556060e-11       1.023899641147e-13 
   11       1.114933609895e-10       5.698216897801e-16       1.297185222148e-13       0.000000000000e+00       8.518091290367e-10       7.585973355897e-11       9.188532588145e-14 
   12       1.119381752788e-10       4.964610398172e-16       1.245069076746e-13       0.000000000000e+00       7.449453275082e-10       6.707329002143e-11       6.381732425148e-14 
   13       1.126539042869e-10       4.342800335956e-16       1.260355577012e-13       0.000000000000e+00       6.570776952310e-10       5.920638946361e-11       2.982548993326e-14 
   14       1.135827450003e-10       4.032077287564e-16       1.317082876139e-13       0.000000000000e+00       5.838776303232e-10       5.307655634692e-11      -1.163296734688e-15 
   15       1.147064676988e-10       4.061995315835e-16       1.394326717950e-13       0.000000000000e+00       5.222326578340e-10       4.858761717352e-11      -2.272741789670e-14 
   16       1.159499833787e-10       4.334474754830e-16       1.478764796450e-13       0.000000000000e+00       4.700507449739e-10       4.443708554796e-11      -3.316733873548e-14 
   17       1.173691955357e-10       4.752894381000e-16       1.562819025985e-13       0.000000000000e+00       4.253054335032e-10       4.020210909772e-11      -3.507115166240e-14 
   18       1.188748534231e-10       5.295664257960e-16       1.643074375083e-13       0.000000000000e+00       3.863281502584e-10       3.645522562241e-11      -3.191796559748e-14 
   19       1.204668579808e-10       6.003245005563e-16       1.720691657198e-13       0.000000000000e+00       3.525659785542e-10       3.343245379649e-11      -2.545823911757e-14 
   20       1.221357885810e-10       6.927870958340e-16       1.798313917363e-13       0.000000000000e+00       3.228324845509e-10       3.105427906521e-11      -1.750686139245e-14 
   21       1.238819851187e-10       8.089006159865e-16       1.878072696276e-13       0.000000000000e+00       2.966792630913e-10       2.889520317867e-11      -1.032709500946e-14 
   22       1.256794678336e-10       9.487961145668e-16       1.961610078609e-13       0.000000000000e+00       2.734661795887e-10       2.647169834405e-11      -6.218006142582e-15 
   23       1.275395186970e-10       1.111407125579e-15       2.048458851179e-13       0.000000000000e+00       2.528705536347e-10       2.422756533641e-11      -5.055826715972e-15 
   24       1.294616195006e-10       1.295003505377e-15       2.136917616951e-13       0.000000000000e+00       2.344119370784e-10       2.277945394824e-11      -5.735132776899e-15 
   25       1.314364377369e-10       1.499679212319e-15       2.224632798107e-13       0.000000000000e+00       2.178549003314e-10       2.168907881210e-11      -7.404665106882e-15 
   26       1.334391337425e-10       1.725918546097e-15       2.308622451267e-13       0.000000000000e+00       2.028813394235e-10       2.025201506481e-11      -9.240984806625e-15 
   27       1.354778617056e-10       1.973992075691e-15       2.386166529752e-13       0.000000000000e+00       1.893297387613e-10       1.870037774205e-11      -1.093842861581e-14 
   28       1.375602598715e-10       2.244142432941e-15       2.454576617324e-13       0.000000000000e+00       1.769942483515e-10       1.751063147832e-11      -1.232612526909e-14 
   29       1.396918551830e-10       2.537385835483e-15       2.512421864821e-13       0.000000000000e+00       1.658115557614e-10       1.664858314392e-11      -1.322082721294e-14 
   30       1.418638737325e-10       2.855031625932e-15       2.558630081777e-13       0.000000000000e+00       1.556505835433e-10       1.587248881329e-11      -1.341401430502e-14 
   31       1.440573876028e-10       3.198468883012e-15       2.592350054280e-13       0.000000000000e+00       1.462934530771e-10       1.494201296994e-11      -1.275807608030e-14 
   32       1.462784480933e-10       3.569109701635e-15       2.613779925036e-13       0.000000000000e+00       1.376950097749e-10       1.391834466015e-11      -1.149016697503e-14 
   33       1.485335617147e-10       3.968434347332e-15       2.623686642023e-13       0.000000000000e+00       1.298031710737e-10       1.297775939561e-11      -1.004111280591e-14 
   34       1.508214415709e-10       4.397870022325e-15       2.622887818714e-13       0.000000000000e+00       1.225162264065e-10       1.228217910936e-11      -8.859003976123e-15 
   35       1.531402739456e-10       4.858300724459e-15       2.611098908425e-13       0.000000000000e+00       1.157966956732e-10       1.178914608608e-11      -8.055915145937e-15 
   36       1.554811484593e-10       5.350377101834e-15       2.587687692065e-13       0.000000000000e+00       1.095873276057e-10       1.137322753919e-11      -7.639877595156e-15 
   37       1.578318853443e-10       5.874687849269e-15       2.551994595265e-13       0.000000000000e+00       1.038041315623e-10       1.090845315296e-11      -7.591366524591e-15 
   38       1.602002666254e-10       6.431934653817e-15       2.503408336078e-13       0.000000000000e+00       9.843261303583e-11       1.038845874067e-11      -7.810563355076e-15 
   39       1.625973777447e-10       7.022805208225e-15       2.441308362007e-13       0.000000000000e+00       9.345747152903e-11       9.844907028513e-12      -8.149235503545e-15 
   40       1.650308133715e-10       7.647920888379e-15       2.365040228352e-13       0.000000000000e+00       8.883348109064e-11       9.315791966402e-12      -8.421691322480e-15 
   41       1.675039240171e-10       8.307878608970e-15       2.273963106358e-13       0.000000000000e+00       8.450149492808e-11       8.836779000261e-12      -8.455223901853e-15 
   42       1.700143444843e-10       9.003403060447e-15       2.167619082024e-13       0.000000000000e+00       8.044902689973e-11       8.410956613858e-12      -8.267095681553e-15 
   43       1.725542276974e-10       9.735236830636e-15       2.045613246482e-13       0.000000000000e+00       7.666497916399e-11       8.029853238021e-12      -7.941034754357e-15 
   44       1.751100430267e-10       1.050409746311e-14       1.907567641934e-13       0.000000000000e+00       7.312140187179e-11       7.681362451554e-12      -7.580467287209e-15 
   45       1.776680088513e-10       1.131062170315e-14       1.753164016303e-13       0.000000000000e+00       6.978344947991e-11       7.352852856172e-12      -7.286122202451e-15 
   46       1.802334380425e-10       1.215518101749e-14       1.582287039945e-13       0.000000000000e+00       6.664595859627e-11       7.042209087521e-12      -7.078073452708e-15 
   47       1.828163740032e-10       1.303800900315e-14       1.394924114081e-13       0.000000000000e+00       6.370552484535e-11       6.749656574844e-12      -6.952403761820e-15 
   48       1.854260606708e-10       1.395924706203e-14       1.191128967272e-13       0.000000000000e+00       6.094948298681e-11       6.474622149146e-12      -6.902589200470e-15 
   49       1.880708110521e-10       1.491894012674e-14       9.710242334900e-14       0.000000000000e+00       5.835521680002e-11       6.215672114332e-12      -6.919324271905e-15 
   50       1.907566458912e-10       1.591709827633e-14       7.347146953282e-14       0.000000000000e+00       5.589703055118e-11       5.971038943428e-12      -6.991507893007e-15 
   51       1.934830790424e-10       1.695391121657e-14       4.819932703505e-14       0.000000000000e+00       5.357056333224e-11       5.740513584984e-12      -7.109922652569e-15 
   52       1.962459608401e-10       1.802958462979e-14       2.125596744088e-14       0.000000000000e+00       5.137380881134e-11       5.523959754020e-12      -7.264251896038e-15 
   53       1.990384231299e-10       1.914427822775e-14      -7.389880601563e-15       0.000000000000e+00       4.929980650851e-11       5.320736783090e-12      -7.441888686366e-15 
   54       2.018506899283e-10       2.029810457815e-14      -3.777089397377e-14       0.000000000000e+00       4.733630751940e-11       5.129665393430e-12      -7.627815520110e-15 
   55       2.046733591607e-10       2.149111651371e-14      -6.991785669759e-14       0.000000000000e+00       4.546954811458e-11       4.949380508947e-12      -7.807997361652e-15 
   56       2.075086363256e-10       2.272326838483e-14      -1.038484327514e-13       0.000000000000e+00       4.369743410880e-11       4.779570750195e-12      -7.980823369890e-15 
   57       2.103615598683e-10       2.399444312585e-14      -1.395758889739e-13       0.000000000000e+00       4.201904626091e-11       4.619986902778e-12      -8.148296855379e-15 
   58       2.132367216791e-10       2.530446124619e-14      -1.771123388297e-13       0.000000000000e+00       4.043064892117e-11       4.470063119831e-12      -8.312787230735e-15 
   59       2.161382129889e-10       2.665307921203e-14      -2.164687701583e-13       0.000000000000e+00       3.892551580206e-11       4.328897772746e-12      -8.477046609249e-15 
   60       2.190695702658e-10       2.803998782805e-14      -2.576550729228e-13       0.000000000000e+00       3.749375574906e-11       4.195234301912e-12      -8.644226403511e-15 
   61       2.220336060091e-10       2.946480919746e-14      -3.006768184164e-13       0.000000000000e+00       3.612507676900e-11       4.067741437451e-12      -8.816572739131e-15 
   62       2.250319791510e-10       3.092709046582e-14      -3.455246893037e-13       0.000000000000e+00       3.481819726399e-11       3.945970683251e-12      -8.991132958404e-15 
   63       2.280654317800e-10       3.242630579486e-14      -3.921827154824e-13       0.000000000000e+00       3.357324769085e-11       3.829580747873e-12      -9.163110463974e-15 
   64       2.311338391212e-10       3.396185602985e-14      -4.406312394363e-13       0.000000000000e+00       3.238893931425e-11       3.718047679949e-12      -9.327076043078e-15 
   65       2.342361517810e-10       3.553306703621e-14      -4.908468409106e-13       0.000000000000e+00       3.126248320620e-11       3.610655217694e-12      -9.476942545965e-15 
   66       2.373703379905e-10       3.713918803606e-14      -5.428022615871e-13       0.000000000000e+00       3.018950924548e-11       3.506485138425e-12      -9.605939564316e-15 
   67       2.405333258499e-10       3.877938994489e-14      -5.964663297595e-13       0.000000000000e+00       2.916398511716e-11       3.404407608082e-12      -9.706588109666e-15 
   68       2.437221407877e-10       4.045277817259e-14      -6.518072523102e-13       0.000000000000e+00       2.817983547919e-11       3.303413832464e-12      -9.772560501239e-15 
   69       2.469377146766e-10       4.215843775674e-14      -7.088034335960e-13       0.000000000000e+00       2.723636150252e-11       3.203713853491e-12      -9.804754251313e-15 
   70       2.501817483359e-10       4.389539442834e-14      -7.674347235090e-13       0.000000000000e+00       2.633377900521e-11       3.105844880862e-12      -9.806409074870e-15 
   71       2.534555579066e-10       4.566259968628e-14      -8.276792547413e-13       0.000000000000e+00       2.547157860304e-11       3.010347792040e-12      -9.781353057587e-15 
   72       2.567600476638e-10       4.745892950388e-14      -8.895134535806e-13       0.000000000000e+00       2.464848819149e-11       2.917766236287e-12      -9.734025549334e-15 
   73       2.600956828291e-10       4.928318303543e-14      -9.529120507056e-13       0.000000000000e+00       2.386243542779e-11       2.828645738703e-12      -9.669500057666e-15 
   74       2.634624623823e-10       5.113408132274e-14      -1.017848091981e-12       0.000000000000e+00       2.311051021293e-11       2.743532804266e-12      -9.593507141317e-15 
   75       2.668598918740e-10       5.301026600170e-14      -1.084292949255e-12       0.000000000000e+00       2.238892717365e-11       2.662974021864e-12      -9.512457303698e-15 
   76       2.702874123617e-10       5.491034419731e-14      -1.152215929468e-12       0.000000000000e+00       2.169396816832e-11       2.587389475819e-12      -9.432084862377e-15 
   77       2.737458376187e-10       5.683303551973e-14      -1.221582995838e-12       0.000000000000e+00       2.102509116131e-11       2.516668310795e-12      -9.353043449707e-15 
   78       2.772361308303e-10       5.877704964829e-14      -1.292357832007e-12       0.000000000000e+00       2.038232273815e-11       2.450497445772e-12      -9.274545191765e-15 
   79       2.807589541738e-10       6.074104218025e-14      -1.364502225556e-12       0.000000000000e+00       1.976531123528e-11       2.388477306647e-12      -9.195663181542e-15 
   80       2.843146509842e-10       6.272361428446e-14      -1.437976070562e-12       0.000000000000e+00       1.917330931823e-11       2.330118352845e-12      -9.115326094435e-15 
   81       2.879032279193e-10       6.472331235506e-14      -1.512737370156e-12       0.000000000000e+00       1.860515655986e-11       2.274837603929e-12      -9.032312803735e-15 
   82       2.915243371253e-10       6.673862766515e-14      -1.588742239085e-12       0.000000000000e+00       1.805926201850e-11       2.221955166212e-12      -8.945246996120e-15 
   83       2.951772584023e-10       6.876799602047e-14      -1.665944906268e-12       0.000000000000e+00       1.753358681621e-11       2.170690759368e-12      -8.852591787143e-15 
   84       2.988612492796e-10       7.080980711155e-14      -1.744297480021e-12       0.000000000000e+00       1.702614484674e-11       2.120338369604e-12      -8.753123454113e-15 
   85       3.025767009901e-10       7.286243511022e-14      -1.823749193407e-12       0.000000000000e+00       1.653663843460e-11       2.070831084840e-12      -8.647454664211e-15 
   86       3.063241423243e-10       7.492421253394e-14      -1.904247037892e-12       0.000000000000e+00       1.606506315240e-11       2.022263964318e-12      -8.536755067187e-15 
   87       3.101038772792e-10       7.699342081774e-14      -1.985735988144e-12       0.000000000000e+00       1.561120521469e-11       1.974723764905e-12      -8.422297258341e-15 
   88       3.139159734069e-10       7.906829013085e-14      -2.068159000608e-12       0.000000000000e+00       1.517463276424e-11       1.928288461425e-12      -8.305459446411e-15 
   89       3.177602501636e-10       8.114699919341e-14      -2.151457012067e-12       0.000000000000e+00       1.475468715829e-11       1.883026766996e-12      -8.187728121454e-15 
   90       3.216362672582e-10       8.322767509312e-14      -2.235568938222e-12       0.000000000000e+00       1.435047425485e-11       1.838997653361e-12      -8.070700722730e-15 
   91       3.255433130010e-10       8.530839310192e-14      -2.320431672255e-12       0.000000000000e+00       1.396085569892e-11       1.796249871225e-12      -7.956088306586e-15 
   92       3.294803926529e-10       8.738717649269e-14      -2.405980083399e-12       0.000000000000e+00       1.358444020874e-11       1.754821470588e-12      -7.845718214339e-15 
   93       3.334465424260e-10       8.946204432922e-14      -2.492148626781e-12       0.000000000000e+00       1.321991479234e-11       1.714737846739e-12      -7.741170530096e-15 
   94       3.374418508172e-10       9.153116345622e-14      -2.578876452994e-12       0.000000000000e+00       1.286711430700e-11       1.676006583914e-12      -7.642619114577e-15 
   95       3.414665700561e-10       9.359271913606e-14      -2.666103067937e-12       0.000000000000e+00       1.252609739923e-11       1.638620945662e-12      -7.549820384279e-15 
   96       3.455207970547e-10       9.564486958109e-14      -2.753766810427e-12       0.000000000000e+00       1.219681691438e-11       1.602560786880e-12      -7.462461662889e-15 
   97       3.496044662263e-10       9.768574642881e-14      -2.841804872887e-12       0.000000000000e+00       1.187911584898e-11       1.567792053911e-12      -7.380158822265e-15 
   98       3.537173423044e-10       9.971345521713e-14      -2.930153322033e-12       0.000000000000e+00       1.157272330325e-11       1.534266284638e-12      -7.302453923411e-15 
   99       3.578590131617e-10       1.017260758595e-13      -3.018747119563e-12       0.000000000000e+00       1.127725043345e-11       1.501920108584e-12      -7.228812857455e-15 
  100       3.620288826288e-10       1.037216631202e-13      -3.107520142846e-12       0.000000000000e+00       1.099218640438e-11       1.470674747004e-12      -7.158622986629e-15 
  101       3.662261633136e-10       1.056982470894e-13      -3.196405205604e-12       0.000000000000e+00       1.071689434178e-11       1.440435512985e-12      -7.091190785247e-15 
  102       3.704498694197e-10       1.076538336585e-13      -3.285334078604e-12       0.000000000000e+00       1.045060728472e-11       1.411091311537e-12      -7.025739480679e-15 
  103       3.746988095659e-10       1.095864049952e-13      -3.374237510344e-12       0.000000000000e+00       1.019242413809e-11       1.382514139698e-12      -6.961406694335e-15 
  104       3.789718391890e-10       1.114939648178e-13      -3.463045535903e-12       0.000000000000e+00       9.941514790530e-12       1.354588897502e-12      -6.897409649765e-15 
  105       3.832686720520e-10       1.133746801586e-13      -3.551688406446e-12       0.000000000000e+00       9.697775742822e-12       1.327308483937e-12      -6.833571294588e-15 
  106       3.875891654818e-10       1.152267597259e-13      -3.640095824431e-12       0.000000000000e+00       9.461255911811e-12       1.300690674907e-12      -6.769861182932e-15 
  107       3.919330662978e-10       1.170484117705e-13      -3.728196690229e-12       0.000000000000e+00       9.231953645719e-12       1.274748794683e-12      -6.706233743507e-15 
