# dimensionless total [l(l+1)/2pi] C_l's
# for l=2 to 3000, i.e. number of multipoles equal to 2999
#
# -> if you prefer output in CAMB/HealPix/LensPix units/order, set 'format' to 'camb' in input file
# -> if you don't want to see such a header, set 'headers' to 'no' in input file
# -> for CMB lensing (phi), these are C_l^phi-phi for the lensing potential.
#    Remember the conversion factors:
#    C_l^dd (deflection) = l(l+1) C_l^phi-phi
#    C_l^gg (shear/convergence) = 1/4 (l(l+1))^2 C_l^phi-phi
#
# 1:l     2:TT                     3:EE                     4:TE                     5:BB                     6:phiphi                 7:TPhi                   8:Ephi               
    2       2.854580574728e-10       7.806639904165e-15       5.603665712443e-13       4.801532469386e-15       8.287646974233e-09       4.688830736485e-10      -2.069962566653e-12 
    3       2.442143283592e-10       1.011670793023e-14       4.540119330482e-13       4.836400782299e-15       5.159906460208e-09       3.331015826300e-10      -1.657326592498e-12 
    4       2.251760990436e-10       9.681164646133e-15       3.881849326118e-13       4.206585881554e-15       3.594440284150e-09       2.522987184523e-10      -1.177729791736e-12 
    5       2.145226430331e-10       7.468221505136e-15       3.248965586993e-13       3.295429736118e-15       2.683665478884e-09       1.993533541905e-10      -7.494955693258e-13 
    6       2.075429920358e-10       4.911370147570e-15       2.623287584675e-13       2.391294571565e-15       2.095243194045e-09       1.622696309579e-10      -4.080046807452e-13 
    7       2.029857216742e-10       2.945504742153e-15       2.058540265036e-13       1.653091767417e-15       1.689058764837e-09       1.350148162190e-10      -1.621219194111e-13 
    8       2.000019916521e-10       1.814715028551e-15       1.590675220160e-13       1.133970702114e-15       1.395566659684e-09       1.143034687750e-10      -5.638293223594e-15 
    9       1.981575100849e-10       1.327153360743e-15       1.236136044947e-13       8.220849764821e-16       1.175639121040e-09       9.820430350705e-11       7.615543368436e-14 
   10       1.971287891178e-10       1.181520950275e-15       9.942007504191e-14       6.755209050740e-16       1.005622219958e-09       8.542172580860e-11       1.021533070683e-13 
   11       1.966095488853e-10       1.163891460571e-15       8.518470719471e-14       6.461125929804e-16       8.459586228310e-10       7.527626916117e-11       9.186925780847e-14 
   12       1.965246639068e-10       1.187347702589e-15       7.874330227338e-14       6.918629486124e-16       7.391151059011e-10       6.665323698672e-11       6.312288659585e-14 
   13       1.967342602342e-10       1.242262045257e-15       7.762828595005e-14       7.820402370177e-16       6.514167854359e-10       5.939854905643e-11       2.907380183358e-14 
   14       1.971627426025e-10       1.337959324316e-15       7.955042426817e-14       8.964532684281e-16       5.784497326906e-10       5.331015523212e-11      -9.905394090600e-16 
   15       1.977808422392e-10       1.473380046613e-15       8.263603120363e-14       1.023904090121e-15       5.170392054933e-10       4.816505931373e-11      -2.218497889738e-14 
   16       1.985068471017e-10       1.637961629651e-15       8.571043768232e-14       1.158890172830e-15       4.648311258137e-10       4.373466635697e-11      -3.331117071674e-14 
   17       1.993930395212e-10       1.822788810289e-15       8.812898165020e-14       1.298638511958e-15       4.200469299258e-10       3.978702019531e-11      -3.583036052958e-14 
   18       2.003424337973e-10       2.025546151747e-15       8.962584546740e-14       1.442810239292e-15       3.811767768025e-10       3.635377318966e-11      -3.220162025450e-14 
   19       2.013722342327e-10       2.250153857752e-15       9.036446008463e-14       1.591189394009e-15       3.476064091840e-10       3.338941448388e-11      -2.498987277528e-14 
   20       2.024537729851e-10       2.501891332367e-15       9.067178593603e-14       1.743537556648e-15       3.180408156151e-10       3.072423676919e-11      -1.731416027448e-14 
   21       2.035979282461e-10       2.782502014755e-15       9.079412664297e-14       1.899754511117e-15       2.920154221456e-10       2.834888138377e-11      -1.085695762124e-14 
   22       2.047732597029e-10       3.091863965046e-15       9.092944272184e-14       2.059855672408e-15       2.689075992782e-10       2.626528044954e-11      -6.763904434708e-15 
   23       2.059985096584e-10       3.428768172735e-15       9.106466618499e-14       2.223743143304e-15       2.483992179351e-10       2.443544243111e-11      -5.096113028412e-15 
   24       2.072671084266e-10       3.791412463103e-15       9.106884095703e-14       2.391310226762e-15       2.300156149992e-10       2.278272646453e-11      -5.393573464855e-15 
   25       2.085756359566e-10       4.179833139330e-15       9.073688985879e-14       2.562364896479e-15       2.135405476074e-10       2.126825031389e-11      -7.062827147539e-15 
   26       2.098959427438e-10       4.594511792973e-15       8.980088350496e-14       2.736694892984e-15       1.986760447033e-10       1.985721377422e-11      -9.331707621410e-15 
   27       2.112386333678e-10       5.035820345451e-15       8.801447791116e-14       2.914044580830e-15       1.852441229833e-10       1.856707514910e-11      -1.148161780605e-14 
   28       2.126073451208e-10       5.504112499841e-15       8.513441805485e-14       3.094156501976e-15       1.730135016677e-10       1.741918277252e-11      -1.283738094107e-14 
   29       2.140154517545e-10       6.000225967796e-15       8.104067956411e-14       3.276811193468e-15       1.619214717140e-10       1.640131942755e-11      -1.332141284245e-14 
   30       2.154550528187e-10       6.525171159273e-15       7.564971533497e-14       3.461814561471e-15       1.518484018742e-10       1.547592968742e-11      -1.308462468395e-14 
   31       2.168990550457e-10       7.080006502219e-15       6.890087465706e-14       3.648977562527e-15       1.425882943993e-10       1.459819852097e-11      -1.233436442146e-14 
   32       2.183587082056e-10       7.665851953281e-15       6.083519118050e-14       3.838061328949e-15       1.340934207148e-10       1.377010387181e-11      -1.126060309776e-14 
   33       2.198428098498e-10       8.283885313735e-15       5.154986947055e-14       4.028811846267e-15       1.263040381169e-10       1.300527286217e-11      -1.009066594014e-14 
   34       2.213462872859e-10       8.935225816348e-15       4.114701309656e-14       4.220979191023e-15       1.191114622445e-10       1.231192957532e-11      -9.066195913831e-15 
   35       2.228706553199e-10       9.620532087501e-15       2.961667247414e-14       4.414335692816e-15       1.124788547948e-10       1.168361764348e-11      -8.281195653574e-15 
   36       2.244073777884e-10       1.034025387098e-14       1.691328050471e-14       4.608664498883e-15       1.063528501961e-10       1.110420398345e-11      -7.789066980770e-15 
   37       2.259408085685e-10       1.109478506768e-14       2.988738300688e-15       4.803744877985e-15       1.006535590971e-10       1.055544764788e-11      -7.621412561691e-15 
   38       2.274829766378e-10       1.188465486025e-14      -1.219767256669e-14       4.999317001379e-15       9.536623555421e-11       1.003688372324e-11      -7.706643590695e-15 
   39       2.290481904920e-10       1.271039055492e-14      -2.868667182614e-14       5.195105152856e-15       9.047412461826e-11       9.551923448363e-12      -7.922032798720e-15 
   40       2.306425244770e-10       1.357246160354e-14      -4.652208567505e-14       5.390826490009e-15       8.593058400938e-11       9.102308636191e-12      -8.112768113114e-15 
   41       2.322654001187e-10       1.447131625612e-14      -6.574990782327e-14       5.586198134371e-15       8.167533345486e-11       8.687901153499e-12      -8.132947514953e-15 
   42       2.339172101089e-10       1.540751488258e-14      -8.641426543794e-14       5.780962468917e-15       7.769583191823e-11       8.306387390108e-12      -7.989725026132e-15 
   43       2.355925931821e-10       1.638163374036e-14      -1.085607348205e-13       5.974869199708e-15       7.398149253306e-11       7.953184597033e-12      -7.742510354764e-15 
   44       2.372773733442e-10       1.739422736365e-14      -1.322377801726e-13       6.167668458735e-15       7.050526372145e-11       7.621295673077e-12      -7.464720829201e-15 
   45       2.389556778153e-10       1.844576094552e-14      -1.574853913647e-13       6.359106570093e-15       6.723328863382e-11       7.303373002432e-12      -7.228665091716e-15 
   46       2.406356367597e-10       1.953638573284e-14      -1.842963314764e-13       6.548911834688e-15       6.416041552958e-11       6.999061729999e-12      -7.052824067877e-15 
   47       2.423300614351e-10       2.066609478358e-14      -2.126437477824e-13       6.736804498927e-15       6.128307423360e-11       6.709551552469e-12      -6.940239110877e-15 
   48       2.440489207856e-10       2.183477904565e-14      -2.424913914036e-13       6.922500385709e-15       5.858856656165e-11       6.435480670838e-12      -6.893024420991e-15 
   49       2.457990281943e-10       2.304222252100e-14      -2.737932089205e-13       7.105710652375e-15       5.605438750465e-11       6.176888286021e-12      -6.912288744270e-15 
   50       2.475840746389e-10       2.428815600040e-14      -3.065048255733e-13       7.286154559728e-15       5.365500303118e-11       5.933355885434e-12      -6.996232127390e-15 
   51       2.494054655002e-10       2.557244668198e-14      -3.406226169432e-13       7.463602426746e-15       5.138592724441e-11       5.704586524613e-12      -7.134008802747e-15 
   52       2.512611694288e-10       2.689495166345e-14      -3.761545369161e-13       7.637843917035e-15       4.924500732259e-11       5.489900670796e-12      -7.310063104295e-15 
   53       2.531451018945e-10       2.825546183973e-14      -4.131093006600e-13       7.808676408269e-15       4.722521796915e-11       5.288023450923e-12      -7.505648528862e-15 
   54       2.550468282398e-10       2.965369982337e-14      -4.514965358420e-13       7.975905362418e-15       4.531433349663e-11       5.097046031532e-12      -7.698663555141e-15 
   55       2.569557997820e-10       3.108934445178e-14      -4.913259207292e-13       8.139346590068e-15       4.349865622994e-11       4.914950315775e-12      -7.869072504784e-15 
   56       2.588759747144e-10       3.256211620258e-14      -5.326040013288e-13       8.298832853899e-15       4.177603756858e-11       4.741424148756e-12      -8.017121227246e-15 
   57       2.608143092270e-10       3.407170935468e-14      -5.753368484260e-13       8.454209554144e-15       4.014551726507e-11       4.576429402024e-12      -8.149359006173e-15 
   58       2.627764249705e-10       3.561776623953e-14      -6.195311107395e-13       8.605333412603e-15       3.860338433099e-11       4.419661854915e-12      -8.273502240256e-15 
   59       2.647664887236e-10       3.719987619739e-14      -6.651941266663e-13       8.752072916667e-15       3.714300715938e-11       4.270534521865e-12      -8.398487861255e-15 
   60       2.667870920584e-10       3.881757453359e-14      -7.123340360275e-13       8.894308763353e-15       3.575466364701e-11       4.128160979728e-12      -8.534526752037e-15 
   61       2.688398918395e-10       4.047033137118e-14      -7.609553188872e-13       9.031931778385e-15       3.442824043731e-11       3.991619252325e-12      -8.690084108352e-15 
   62       2.709279719477e-10       4.215751764619e-14      -8.110439890640e-13       9.164835123106e-15       3.316242296050e-11       3.860850398228e-12      -8.861907640575e-15 
   63       2.730538005486e-10       4.387842959277e-14      -8.625792603131e-13       9.292921118304e-15       3.195727613345e-11       3.735932952596e-12      -9.042845699700e-15 
   64       2.752184217517e-10       4.563229683601e-14      -9.155377932935e-13       9.416103971506e-15       3.081147998376e-11       3.616812551236e-12      -9.224679609276e-15 
   65       2.774213594173e-10       4.741828102761e-14      -9.698936622172e-13       9.534310140891e-15       2.972225080717e-11       3.503294159783e-12      -9.398079577680e-15 
   66       2.796605209635e-10       4.923547448157e-14      -1.025618321500e-12       9.647478699207e-15       2.868526232489e-11       3.395034302887e-12      -9.552560610405e-15 
   67       2.819321011733e-10       5.108289880987e-14      -1.082680572410e-12       9.755561697685e-15       2.769456684095e-11       3.291533293398e-12      -9.676438422332e-15 
   68       2.842323202936e-10       5.295951263876e-14      -1.141049295534e-12       9.858515801331e-15       2.674418315412e-11       3.192275171160e-12      -9.759621862382e-15 
   69       2.865632623153e-10       5.486423962271e-14      -1.200702365654e-12       9.956274413165e-15       2.583341015628e-11       3.097197816211e-12      -9.802745777579e-15 
   70       2.889280523130e-10       5.679594368201e-14      -1.261619491645e-12       1.004877052942e-14       2.496245321961e-11       3.006304570740e-12      -9.809818009180e-15 
   71       2.913290784263e-10       5.875341931261e-14      -1.323779647207e-12       1.013594510656e-14       2.413081714029e-11       2.919521036317e-12      -9.785574564084e-15 
   72       2.937679425800e-10       6.073539045407e-14      -1.387161108253e-12       1.021774720194e-14       2.333726992398e-11       2.836691080814e-12      -9.735508072179e-15 
   73       2.962454112039e-10       6.274050935747e-14      -1.451741490292e-12       1.029413411452e-14       2.257980657104e-11       2.757572845335e-12      -9.665896243698e-15 
   74       2.987613659526e-10       6.476735545337e-14      -1.517497785819e-12       1.036507152547e-14       2.185561286201e-11       2.681834751134e-12      -9.583830326570e-15 
   75       3.013147544255e-10       6.681443421970e-14      -1.584406401701e-12       1.043053363893e-14       2.116102914286e-11       2.609051506545e-12      -9.497243563776e-15 
   76       3.039044402796e-10       6.888022352028e-14      -1.652442129394e-12       1.049050315210e-14       2.049245849964e-11       2.538808994203e-12      -9.413220559868e-15 
   77       3.065320414734e-10       7.096332487843e-14      -1.721574756166e-12       1.054497084836e-14       1.984936253037e-11       2.471049841031e-12      -9.332506551973e-15 
   78       3.091995224633e-10       7.306233786025e-14      -1.791771900964e-12       1.059393618519e-14       1.923174860995e-11       2.405783902769e-12      -9.254043927273e-15 
   79       3.119083103873e-10       7.517581489514e-14      -1.863000042021e-12       1.063740759312e-14       1.863925738819e-11       2.342983242188e-12      -9.176595803947e-15 
   80       3.146592642277e-10       7.730226111715e-14      -1.935224532352e-12       1.067540261286e-14       1.807114594063e-11       2.282580368691e-12      -9.098739237174e-15 
   81       3.174526439739e-10       7.944013420637e-14      -2.008409615265e-12       1.070794803254e-14       1.752627091932e-11       2.224466477918e-12      -9.018858425132e-15 
   82       3.202880797851e-10       8.158784423020e-14      -2.082518439859e-12       1.073508002482e-14       1.700307170369e-11       2.168489691349e-12      -8.935137915006e-15 
   83       3.231645411528e-10       8.374375348478e-14      -2.157513076530e-12       1.075684428412e-14       1.649955355134e-11       2.114453295905e-12      -8.845555808989e-15 
   84       3.260809683876e-10       8.590618309922e-14      -2.233353727555e-12       1.077329121753e-14       1.601377229194e-11       2.062166035098e-12      -8.748462689989e-15 
   85       3.290383549122e-10       8.807343445395e-14      -2.309996174519e-12       1.078446030111e-14       1.554541763933e-11       2.011606417858e-12      -8.644443552412e-15 
   86       3.320379552349e-10       9.024377103871e-14      -2.387393934180e-12       1.079039336964e-14       1.509446268732e-11       1.962782547673e-12      -8.534753518762e-15 
   87       3.350806339020e-10       9.241541196100e-14      -2.465499027716e-12       1.079113938553e-14       1.466067740822e-11       1.915681620369e-12      -8.420762569175e-15 
   88       3.381668457921e-10       9.458653190109e-14      -2.544261982699e-12       1.078675449293e-14       1.424362023295e-11       1.870269038532e-12      -8.303958591458e-15 
   89       3.412966164102e-10       9.675526106705e-14      -2.623631835070e-12       1.077730207169e-14       1.384262963118e-11       1.826487525919e-12      -8.185950431116e-15 
   90       3.444695221818e-10       9.891968514972e-14      -2.703556131113e-12       1.076285279150e-14       1.345681569146e-11       1.784256241888e-12      -8.068470941386e-15 
   91       3.476846707472e-10       1.010778452777e-13      -2.783980929436e-12       1.074348466587e-14       1.308505170127e-11       1.743469895806e-12      -7.953380033268e-15 
   92       3.509406812555e-10       1.032277379726e-13      -2.864850802940e-12       1.071928310621e-14       1.272596572721e-11       1.703997861475e-12      -7.842667725556e-15 
   93       3.542362334244e-10       1.053673608144e-13      -2.946109958562e-12       1.069033698074e-14       1.237826602410e-11       1.665716146122e-12      -7.738052426374e-15 
   94       3.575718519835e-10       1.074948573935e-13      -3.027705784843e-12       1.065672599581e-14       1.204179153532e-11       1.628610720935e-12      -7.639700040106e-15 
   95       3.609483554257e-10       1.096083941780e-13      -3.109585844046e-12       1.061853150783e-14       1.171660455547e-11       1.592688166409e-12      -7.547316956866e-15 
   96       3.643662994164e-10       1.117061173201e-13      -3.191696819025e-12       1.057584034851e-14       1.140266719292e-11       1.557943773732e-12      -7.460535183250e-15 
   97       3.678259648946e-10       1.137861532381e-13      -3.273984530540e-12       1.052874482408e-14       1.109983753238e-11       1.524361110193e-12      -7.378909836173e-15 
   98       3.713273461746e-10       1.158466091996e-13      -3.356393954582e-12       1.047734271451e-14       1.080786579742e-11       1.491911584590e-12      -7.301916636716e-15 
   99       3.748701390474e-10       1.178855739035e-13      -3.438869239683e-12       1.042173727269e-14       1.052639051299e-11       1.460554012641e-12      -7.228949403962e-15 
  100       3.784537288823e-10       1.199011180625e-13      -3.521353724246e-12       1.036203722365e-14       1.025493466797e-11       1.430234182389e-12      -7.159317548840e-15 
  101       3.820771787281e-10       1.218912949858e-13      -3.603789953852e-12       1.029835676379e-14       9.992901877685e-12       1.400884419613e-12      -7.092243567966e-15 
  102       3.857392174152e-10       1.238541411614e-13      -3.686119698591e-12       1.023081556005e-14       9.739572546444e-12       1.372423153232e-12      -7.026860537480e-15 
  103       3.894382276566e-10       1.257876768385e-13      -3.768283970370e-12       1.015953874916e-14       9.494100030068e-12       1.344754480721e-12      -6.962209606895e-15 
  104       3.931726776256e-10       1.276899478912e-13      -3.850222937198e-12       1.008465238844e-14       9.255702522727e-12       1.317790265444e-12      -6.897434439046e-15 
  105       3.969425077136e-10       1.295591565937e-13      -3.931875615527e-12       1.000626911030e-14       9.024276503814e-12       1.291520764313e-12      -6.832399841694e-15 
  106       4.007479097928e-10       1.313935496792e-13      -4.013180168438e-12       9.924500519395e-15       8.799859390434e-12       1.265952775114e-12      -6.767152420873e-15 
  107       4.045888935281e-10       1.331913796597e-13      -4.094074020971e-12       9.839461517764e-15       8.582439546770e-12       1.241087771815e-12      -6.701730759497e-15 
