# Matter power spectrum P(k) at redshift z=0
# for k=1.03892e-05 to 104.924 h/Mpc,
# number of wavenumbers equal to 622
#    1:k (h/Mpc)              2:P (Mpc/h)^3        
       1.038922642939e-05       5.116730619998e+01 
       2.321812845909e-05       1.108985041097e+02 
       3.609173376214e-05       1.695112885672e+02 
       4.904439972694e-05       2.276638177403e+02 
       6.211104704304e-05       2.857256836202e+02 
       7.532746857735e-05       3.439709422173e+02 
       8.873064804492e-05       4.026320526695e+02 
       1.023590926816e-04       4.619218460480e+02 
       1.162531841578e-04       5.220447480856e+02 
       1.304555520066e-04       5.832034994775e+02 
       1.450114738458e-04       6.456037738960e+02 
       1.599693066204e-04       7.093829574087e+02 
       1.753809529236e-04       7.748975357427e+02 
       1.913023661048e-04       8.423194878485e+02 
       2.077940972509e-04       9.118972724727e+02 
       2.249218861034e-04       9.838966466108e+02 
       2.427572963948e-04       1.058603184883e+03 
       2.613783937365e-04       1.136324829633e+03 
       2.808704608154e-04       1.217394421905e+03 
       3.013267399410e-04       1.302172198099e+03 
       3.228491865615e-04       1.391048168692e+03 
       3.455492088576e-04       1.484444251126e+03 
       3.695483575494e-04       1.582816035649e+03 
       3.949789163640e-04       1.686653915570e+03 
       4.219843271948e-04       1.796483337136e+03 
       4.507193653102e-04       1.912863841602e+03 
       4.813499602484e-04       2.036386413330e+03 
       5.140525396193e-04       2.167668736126e+03 
       5.490127597171e-04       2.307347835357e+03 
       5.864234841229e-04       2.456069621266e+03 
       6.264818863382e-04       2.614474984073e+03 
       6.693855925968e-04       2.783182300429e+03 
       7.153278528514e-04       2.962766419695e+03 
       7.644918338936e-04       3.153734899899e+03 
       8.170442633386e-04       3.356502488639e+03 
       8.731288006756e-04       3.571365704182e+03 
       9.328596442615e-04       3.798479588857e+03 
       9.963159659543e-04       4.037839113497e+03 
       1.063537764581e-03       4.289267507972e+03 
       1.134523626239e-03       4.552413258657e+03 
       1.209230679194e-03       4.826756684026e+03 
       1.287576767919e-03       5.111625682647e+03 
       1.369444599257e-03       5.406241173334e+03 
       1.454687391959e-03       5.709726107723e+03 
       1.543135431684e-03       6.021079936911e+03 
       1.634602912099e-03       6.339295872922e+03 
       1.728894515478e-03       6.663357330355e+03 
       1.825811320550e-03       6.992262596328e+03 
       1.925155782887e-03       7.325044100090e+03 
       2.026735681319e-03       7.660783687754e+03 
       2.130367042364e-03       7.998622554979e+03 
       2.235876135455e-03       8.337767671138e+03 
       2.343100676636e-03       8.677494551967e+03 
       2.451890394377e-03       9.017147005817e+03 
       2.562107107073e-03       9.356135171432e+03 
       2.673624445823e-03       9.693932753563e+03 
       2.786327334635e-03       1.003007248308e+04 
       2.900111317649e-03       1.036414175801e+04 
       3.014881802039e-03       1.069577855187e+04 
       3.130553267074e-03       1.102466448834e+04 
       3.247048475047e-03       1.135052515659e+04 
       3.364297708069e-03       1.167311867933e+04 
       3.482238045924e-03       1.199223927662e+04 
       3.600812693636e-03       1.230770820111e+04 
       3.719970362791e-03       1.261937251307e+04 
       3.839664707406e-03       1.292710371390e+04 
       3.959853813072e-03       1.323079178360e+04 
       4.080499736700e-03       1.353034777711e+04 
       4.201568093487e-03       1.382569522949e+04 
       4.323027687306e-03       1.411677419990e+04 
       4.444850180647e-03       1.440353706618e+04 
       4.567009800288e-03       1.468594772768e+04 
       4.689483075068e-03       1.496397719164e+04 
       4.812248602367e-03       1.523761129386e+04 
       4.935286840186e-03       1.550684043695e+04 
       5.058579921982e-03       1.577165750835e+04 
       5.182111491712e-03       1.603206747400e+04 
       5.305866556801e-03       1.628807749980e+04 
       5.429831356981e-03       1.653970227985e+04 
       5.553993247203e-03       1.678695495315e+04 
       5.678340593007e-03       1.702985609218e+04 
       5.802862676925e-03       1.726843199492e+04 
       5.927549614682e-03       1.750271221338e+04 
       6.052392280055e-03       1.773270779487e+04 
       6.177382237451e-03       1.795844168801e+04 
       6.302511681309e-03       1.817996965578e+04 
       6.427773381594e-03       1.839730358240e+04 
       6.553160634691e-03       1.861049506538e+04 
       6.678667219123e-03       1.881958262595e+04 
       6.804287355565e-03       1.902459726156e+04 
       6.930015670697e-03       1.922557853153e+04 
       7.055847164480e-03       1.942256377861e+04 
       7.181777180500e-03       1.961559401827e+04 
       7.307801379070e-03       1.980470385817e+04 
       7.433915712780e-03       1.998994033666e+04 
       7.560116404275e-03       2.017133356595e+04 
       7.686399926014e-03       2.034893628163e+04 
       7.812762981825e-03       2.052277897227e+04 
       7.939202490069e-03       2.069290544184e+04 
       8.065715568266e-03       2.085935856592e+04 
       8.192299519033e-03       2.102217144351e+04 
       8.318951817208e-03       2.118138484002e+04 
       8.445670098062e-03       2.133704291114e+04 
       8.572452146474e-03       2.148918479102e+04 
       8.699295887004e-03       2.163785256704e+04 
       8.826199374763e-03       2.178308192778e+04 
       8.953160787016e-03       2.192491202403e+04 
       9.080178415459e-03       2.206338629667e+04 
       9.207250659091e-03       2.219854534192e+04 
       9.334376017655e-03       2.233042048016e+04 
       9.461553085572e-03       2.245905409672e+04 
       9.588780546346e-03       2.258448337455e+04 
       9.716057167395e-03       2.270674470429e+04 
       9.843381795262e-03       2.282588270425e+04 
       9.970753351189e-03       2.294192352276e+04 
       1.009817082702e-02       2.305491242492e+04 
       1.022563328138e-02       2.316488357020e+04 
       1.035313983621e-02       2.327186058746e+04 
       1.048068967341e-02       2.337588532202e+04 
       1.060828203188e-02       2.347701351789e+04 
       1.073591620467e-02       2.357528317320e+04 
       1.086359153639e-02       2.367068041453e+04 
       1.099130742072e-02       2.376327901054e+04 
       1.111906329821e-02       2.385311045805e+04 
       1.124685865418e-02       2.394017983098e+04 
       1.137469301670e-02       2.402456163093e+04 
       1.150256595483e-02       2.410626337385e+04 
       1.163047707693e-02       2.418532447160e+04 
       1.175842602905e-02       2.426177045305e+04 
       1.188641249350e-02       2.433564581462e+04 
       1.201443618746e-02       2.440696910572e+04 
       1.214249686173e-02       2.447578055181e+04 
       1.227059429957e-02       2.454210806648e+04 
       1.239872831558e-02       2.460600540675e+04 
       1.252689875467e-02       2.466744759425e+04 
       1.265510549116e-02       2.472651414433e+04 
       1.278334842789e-02       2.478321751748e+04 
       1.291162749538e-02       2.483759322802e+04 
       1.303994265110e-02       2.488966522132e+04 
       1.316829387881e-02       2.493945408320e+04 
       1.329668118784e-02       2.498700944857e+04 
       1.342510461258e-02       2.503233755760e+04 
       1.355356421189e-02       2.507549029483e+04 
       1.368206006859e-02       2.511646168338e+04 
       1.381059228906e-02       2.515532205822e+04 
       1.393916100277e-02       2.519206273086e+04 
       1.406776636193e-02       2.522672912525e+04 
       1.419640854111e-02       2.525934995251e+04 
       1.432508773700e-02       2.528995033691e+04 
       1.445380416806e-02       2.531854452870e+04 
       1.458255807434e-02       2.534515614853e+04 
       1.471134971720e-02       2.536982898062e+04 
       1.484017937920e-02       2.539258128262e+04 
       1.496904736387e-02       2.541343668793e+04 
       1.509795399561e-02       2.543243177421e+04 
       1.522689961960e-02       2.544957021492e+04 
       1.535588460169e-02       2.546489109895e+04 
       1.548490932832e-02       2.547841434550e+04 
       1.561397420656e-02       2.549016791583e+04 
       1.574307966400e-02       2.550018055575e+04 
       1.587222614882e-02       2.550846039855e+04 
       1.600141412980e-02       2.551504775262e+04 
       1.613064409636e-02       2.551994087049e+04 
       1.625991655862e-02       2.552319150308e+04 
       1.638923204749e-02       2.552481244241e+04 
       1.651859111480e-02       2.552481722097e+04 
       1.664799433338e-02       2.552325929939e+04 
       1.677744229721e-02       2.552012643722e+04 
       1.690693562161e-02       2.551547763011e+04 
       1.703647494338e-02       2.550926403271e+04 
       1.716606092099e-02       2.550156777311e+04 
       1.729569423481e-02       2.549241123353e+04 
       1.742537558732e-02       2.548178957647e+04 
       1.755510570338e-02       2.546974500248e+04 
       1.768488533045e-02       2.545628917681e+04 
       1.781471523888e-02       2.544143917636e+04 
       1.794459622222e-02       2.542522373520e+04 
       1.807452909752e-02       2.540766715793e+04 
       1.820451470563e-02       2.538877107959e+04 
       1.833455391158e-02       2.536855939088e+04 
       1.846464760492e-02       2.534709750236e+04 
       1.859479670009e-02       2.532434241825e+04 
       1.872500213684e-02       2.530037050301e+04 
       1.885526488061e-02       2.527514313521e+04 
       1.898558592297e-02       2.524868650969e+04 
       1.911596628205e-02       2.522107508131e+04 
       1.924640700304e-02       2.519228021100e+04 
       1.937690915863e-02       2.516233778891e+04 
       1.950747384953e-02       2.513129327333e+04 
       1.963810220498e-02       2.509909911373e+04 
       1.976879538329e-02       2.506582628168e+04 
       1.989955457238e-02       2.503147118070e+04 
       2.003038099040e-02       2.499603735565e+04 
       2.016127588626e-02       2.495959398281e+04 
       2.029224054028e-02       2.492214230150e+04 
       2.042327626483e-02       2.488364147611e+04 
       2.055438440499e-02       2.484414913758e+04 
       2.068556633919e-02       2.480374606149e+04 
       2.081682347996e-02       2.476237169159e+04 
       2.094815727463e-02       2.472004151190e+04 
       2.107956920606e-02       2.467679199662e+04 
       2.121106079346e-02       2.463265614158e+04 
       2.134263359313e-02       2.458763792325e+04 
       2.147428919931e-02       2.454172948972e+04 
       2.160602924503e-02       2.449500997517e+04 
       2.173785540298e-02       2.444739969357e+04 
       2.186976938640e-02       2.439901118835e+04 
       2.200177295002e-02       2.434977334743e+04 
       2.213386789100e-02       2.429977572207e+04 
       2.226605604995e-02       2.424905699262e+04 
       2.239833931193e-02       2.419749103559e+04 
       2.253071960749e-02       2.414526958125e+04 
       2.266319891380e-02       2.409220044277e+04 
       2.279577925570e-02       2.403859372882e+04 
       2.292846270690e-02       2.398417126061e+04 
       2.306125139117e-02       2.392913864165e+04 
       2.319414748354e-02       2.387338089350e+04 
       2.332715321158e-02       2.381695395638e+04 
       2.346027085672e-02       2.375991047439e+04 
       2.359350275556e-02       2.370225147412e+04 
       2.372685130130e-02       2.364397814831e+04 
       2.386031894514e-02       2.358512107572e+04 
       2.399390819777e-02       2.352564858445e+04 
       2.412762163093e-02       2.346568149827e+04 
       2.426146187892e-02       2.340511304238e+04 
       2.439543164029e-02       2.334402139981e+04 
       2.452953367946e-02       2.328232048611e+04 
       2.466377082853e-02       2.322016889285e+04 
       2.479814598899e-02       2.315750080285e+04 
       2.493266213362e-02       2.309441175211e+04 
       2.506732230841e-02       2.303076484287e+04 
       2.520212963448e-02       2.296665419380e+04 
       2.533708731018e-02       2.290210095795e+04 
       2.547219861317e-02       2.283708185670e+04 
       2.560746690259e-02       2.277165917906e+04 
       2.574289562134e-02       2.270586510484e+04 
       2.587848829840e-02       2.263962107770e+04 
       2.601424855124e-02       2.257297463875e+04 
       2.615018008833e-02       2.250594134898e+04 
       2.628628671169e-02       2.243857251928e+04 
       2.642257231958e-02       2.237080329010e+04 
       2.655904090928e-02       2.230269071189e+04 
       2.669569657994e-02       2.223427307206e+04 
       2.683254353554e-02       2.216555846968e+04 
       2.696958608796e-02       2.209642022514e+04 
       2.710682866020e-02       2.202705631325e+04 
       2.724427578962e-02       2.195741758116e+04 
       2.738193213142e-02       2.188742497062e+04 
       2.751980246214e-02       2.181719369851e+04 
       2.765789168337e-02       2.174669341857e+04 
       2.779620482556e-02       2.167590454572e+04 
       2.793474705194e-02       2.160494354534e+04 
       2.807352366270e-02       2.153365437844e+04 
       2.821254009921e-02       2.146217484379e+04 
       2.835180194845e-02       2.139048073880e+04 
       2.849131494763e-02       2.131859518499e+04 
       2.863108498899e-02       2.124651189792e+04 
       2.877111812472e-02       2.117415728757e+04 
       2.891142057220e-02       2.110168333242e+04 
       2.905199871931e-02       2.102902171643e+04 
       2.919285913007e-02       2.095620162177e+04 
       2.933400855045e-02       2.088324722163e+04 
       2.947545391441e-02       2.081011661021e+04 
       2.961720235026e-02       2.073680603879e+04 
       2.975926118717e-02       2.066343094918e+04 
       2.990163796208e-02       2.058989851581e+04 
       3.004434042682e-02       2.051621184291e+04 
       3.018737655555e-02       2.044243988281e+04 
       3.033075455253e-02       2.036861111632e+04 
       3.047448286026e-02       2.029460766578e+04 
       3.061857016788e-02       2.022053703929e+04 
       3.076302542009e-02       2.014644476734e+04 
       3.090785782629e-02       2.007214240314e+04 
       3.105307687032e-02       1.999786993685e+04 
       3.119869232049e-02       1.992348318370e+04 
       3.134471424015e-02       1.984909261435e+04 
       3.149115299874e-02       1.977458272256e+04 
       3.163801928332e-02       1.970004914347e+04 
       3.178532411072e-02       1.962551440968e+04 
       3.193307884017e-02       1.955091779640e+04 
       3.208129518661e-02       1.947635543248e+04 
       3.222998523465e-02       1.940164330266e+04 
       3.237916145315e-02       1.932693873573e+04 
       3.252883671060e-02       1.925220497480e+04 
       3.267902429120e-02       1.917758287301e+04 
       3.282973791180e-02       1.910285209366e+04 
       3.298099173971e-02       1.902819021093e+04 
       3.313280041138e-02       1.895343902082e+04 
       3.328517905210e-02       1.887875743915e+04 
       3.343814329670e-02       1.880404111849e+04 
       3.359170931139e-02       1.872936794344e+04 
       3.374589381675e-02       1.865474124343e+04 
       3.390071411198e-02       1.858012843607e+04 
       3.405618810047e-02       1.850559360431e+04 
       3.421233431678e-02       1.843106239311e+04 
       3.436917195518e-02       1.835650820753e+04 
       3.452672089976e-02       1.828196224685e+04 
       3.468500175632e-02       1.820752970841e+04 
       3.484403588603e-02       1.813313592581e+04 
       3.500384544118e-02       1.805877827050e+04 
       3.516445340293e-02       1.798446864825e+04 
       3.532588362145e-02       1.791022952257e+04 
       3.548816085839e-02       1.783599242347e+04 
       3.565131083206e-02       1.776189604064e+04 
       3.581536026536e-02       1.768781146073e+04 
       3.598033693675e-02       1.761372357311e+04 
       3.614626973450e-02       1.753977899430e+04 
       3.631318871440e-02       1.746581582756e+04 
       3.648112516130e-02       1.739202787304e+04 
       3.665011165467e-02       1.731820777535e+04 
       3.682018213864e-02       1.724454396829e+04 
       3.699137199672e-02       1.717087571281e+04 
       3.716371813175e-02       1.709725696243e+04 
       3.733725905139e-02       1.702377692565e+04 
       3.751203495968e-02       1.695032157230e+04 
       3.768808785517e-02       1.687690455645e+04 
       3.786546163621e-02       1.680361138483e+04 
       3.804420221400e-02       1.673036434981e+04 
       3.822435763412e-02       1.665718968927e+04 
       3.840597820729e-02       1.658406331142e+04 
       3.858911665022e-02       1.651105567356e+04 
       3.877382823744e-02       1.643801550986e+04 
       3.896017096531e-02       1.636508657482e+04 
       3.914820572912e-02       1.629222661816e+04 
       3.933799651479e-02       1.621942307664e+04 
       3.952961060649e-02       1.614667855057e+04 
       3.972311881184e-02       1.607396349741e+04 
       3.991859570646e-02       1.600129754346e+04 
       4.011611989981e-02       1.592867413492e+04 
       4.031577432478e-02       1.585615093318e+04 
       4.051764655330e-02       1.578365400996e+04 
       4.072182914103e-02       1.571113563233e+04 
       4.092842000428e-02       1.563870105043e+04 
       4.113752283270e-02       1.556628422175e+04 
       4.134924754215e-02       1.549390253969e+04 
       4.156371077201e-02       1.542149962489e+04 
       4.178103643268e-02       1.534917255993e+04 
       4.200135630908e-02       1.527676861978e+04 
       4.222481072715e-02       1.520446482795e+04 
       4.245154929133e-02       1.513212083715e+04 
       4.268173170212e-02       1.505976682106e+04 
       4.291552866430e-02       1.498738336920e+04 
       4.315312289772e-02       1.491497099969e+04 
       4.339471026507e-02       1.484250498309e+04 
       4.364050103247e-02       1.477002458404e+04 
       4.389072128219e-02       1.469748788977e+04 
       4.414561449945e-02       1.462493325481e+04 
       4.440544335924e-02       1.455224156143e+04 
       4.467049174356e-02       1.447946310166e+04 
       4.494106702499e-02       1.440657093754e+04 
       4.521750265889e-02       1.433366411347e+04 
       4.550016113459e-02       1.426054933036e+04 
       4.578943734550e-02       1.418735369441e+04 
       4.608576244960e-02       1.411394427769e+04 
       4.638960830631e-02       1.404034164458e+04 
       4.670149259324e-02       1.396657064800e+04 
       4.702198472785e-02       1.389257627340e+04 
       4.735171274612e-02       1.381840685063e+04 
       4.769137132355e-02       1.374385766393e+04 
       4.804173116565e-02       1.366911805256e+04 
       4.840365004720e-02       1.359395758223e+04 
       4.877808584554e-02       1.351852028141e+04 
       4.916611199626e-02       1.344270433183e+04 
       4.956893590514e-02       1.336636934684e+04 
       4.998792098423e-02       1.328961638947e+04 
       5.042461315084e-02       1.321231081932e+04 
       5.088077284597e-02       1.313439034840e+04 
       5.135841390588e-02       1.305581962833e+04 
       5.185985097268e-02       1.297651612223e+04 
       5.238775757251e-02       1.289630621873e+04 
       5.294523753990e-02       1.281514131092e+04 
       5.353591313136e-02       1.273279417910e+04 
       5.416403393891e-02       1.264915929480e+04 
       5.483461152136e-02       1.256386961263e+04 
       5.555358534914e-02       1.247669136232e+04 
       5.632802581481e-02       1.238716938387e+04 
       5.716637887099e-02       1.229471236493e+04 
       5.807875266862e-02       1.219847861135e+04 
       5.907723625763e-02       1.209739297038e+04 
       6.017621843407e-02       1.198985536210e+04 
       6.139263231739e-02       1.187360297807e+04 
