# Matter power spectrum P(k) at redshift z=0
# for k=1.03892e-05 to 100.018 h/Mpc,
# number of wavenumbers equal to 811
#    1:k (h/Mpc)              2:P (Mpc/h)^3        
       1.038922642939e-05       5.116730628887e+01 
       2.321812845909e-05       1.108985036414e+02 
       3.609173376214e-05       1.695112901681e+02 
       4.904439972694e-05       2.276638169466e+02 
       6.211104704304e-05       2.857256836159e+02 
       7.532746857735e-05       3.439709419553e+02 
       8.873064804492e-05       4.026320523646e+02 
       1.023590926816e-04       4.619218460456e+02 
       1.162531841578e-04       5.220447483970e+02 
       1.304555520066e-04       5.832034997594e+02 
       1.450114738458e-04       6.456037739676e+02 
       1.599693066204e-04       7.093832265941e+02 
       1.753809529236e-04       7.748978549036e+02 
       1.913023661048e-04       8.423198629617e+02 
       2.077940972509e-04       9.118977115792e+02 
       2.249218861034e-04       9.838971547973e+02 
       2.427572963948e-04       1.058603770726e+03 
       2.613783937365e-04       1.136325501564e+03 
       2.808704608154e-04       1.217395189798e+03 
       3.013267399410e-04       1.302173072711e+03 
       3.228491865615e-04       1.391049162139e+03 
       3.455492088576e-04       1.484445379304e+03 
       3.695483575494e-04       1.582817308426e+03 
       3.949789163640e-04       1.686655351178e+03 
       4.219843271948e-04       1.796484961461e+03 
       4.507193653102e-04       1.912865673626e+03 
       4.813499602484e-04       2.036388477902e+03 
       5.140525396193e-04       2.167671062312e+03 
       5.490127597171e-04       2.307350453196e+03 
       5.864234841229e-04       2.456072568946e+03 
       6.264818863382e-04       2.614478300544e+03 
       6.693855925968e-04       2.783186029606e+03 
       7.153278528514e-04       2.962770613806e+03 
       7.644918338936e-04       3.153739605496e+03 
       8.170442633386e-04       3.356507768547e+03 
       8.731288006756e-04       3.571371614164e+03 
       9.328596442615e-04       3.798486194898e+03 
       9.963159659543e-04       4.037846474024e+03 
       1.063537764581e-03       4.289275679404e+03 
       1.134523626239e-03       4.552422304854e+03 
       1.209230679194e-03       4.826766646751e+03 
       1.287576767919e-03       5.111636609473e+03 
       1.369444599257e-03       5.406253060067e+03 
       1.454687391959e-03       5.709738961054e+03 
       1.543135431684e-03       6.021093738028e+03 
       1.634602912099e-03       6.339310511857e+03 
       1.728894515478e-03       6.663372737633e+03 
       1.825811320550e-03       6.992278585536e+03 
       1.925155782887e-03       7.325060482405e+03 
       2.026735681319e-03       7.660800145355e+03 
       2.130367042364e-03       7.998638738069e+03 
       2.235876135455e-03       8.337783191154e+03 
       2.343100676636e-03       8.677508817508e+03 
       2.451890394377e-03       9.017159355070e+03 
       2.562107107073e-03       9.356145021225e+03 
       2.673624445823e-03       9.693939297234e+03 
       2.786327334635e-03       1.003007438531e+04 
       2.900111317649e-03       1.036413863275e+04 
       3.014881802039e-03       1.069576824408e+04 
       3.130553267074e-03       1.102464623154e+04 
       3.247048475047e-03       1.135049719982e+04 
       3.364297708069e-03       1.167307942804e+04 
       3.482238045924e-03       1.199218693664e+04 
       3.600812693636e-03       1.230764036445e+04 
       3.719970362791e-03       1.261928727936e+04 
       3.839664707406e-03       1.292699833374e+04 
       3.959853813072e-03       1.323066425864e+04 
       4.080499736700e-03       1.353019490843e+04 
       4.201568093487e-03       1.382551385097e+04 
       4.323027687306e-03       1.411656143605e+04 
       4.444850180647e-03       1.440328826726e+04 
       4.567009800288e-03       1.468566113538e+04 
       4.689483075068e-03       1.496364807638e+04 
       4.812248602367e-03       1.523723538636e+04 
       4.935286840186e-03       1.550641280444e+04 
       5.058579921982e-03       1.577117376820e+04 
       5.182111491712e-03       1.603152231067e+04 
       5.305866556801e-03       1.628746708433e+04 
       5.429831356981e-03       1.653902028599e+04 
       5.553993247203e-03       1.678619570406e+04 
       5.678340593007e-03       1.702901406463e+04 
       5.802862676925e-03       1.726750093653e+04 
       5.927549614682e-03       1.750168501442e+04 
       6.052392280055e-03       1.773157811769e+04 
       6.177382237451e-03       1.795720313295e+04 
       6.302511681309e-03       1.817861253759e+04 
       6.427773381594e-03       1.839582246111e+04 
       6.553160634691e-03       1.860888302620e+04 
       6.678667219123e-03       1.881782981337e+04 
       6.804287355565e-03       1.902269774795e+04 
       6.930015670697e-03       1.922352117611e+04 
       7.055847164480e-03       1.942034142388e+04 
       7.181777180500e-03       1.961319705469e+04 
       7.307801379070e-03       1.980212330576e+04 
       7.433915712780e-03       1.998716527366e+04 
       7.560116404275e-03       2.016835781879e+04 
       7.686399926014e-03       2.034574368117e+04 
       7.812762981825e-03       2.051936310134e+04 
       7.939202490069e-03       2.068925628092e+04 
       8.065715568266e-03       2.085546274757e+04 
       8.192299519033e-03       2.101801699130e+04 
       8.318951817208e-03       2.117696649512e+04 
       8.445670098062e-03       2.133234211351e+04 
       8.572452146474e-03       2.148419360426e+04 
       8.699295887004e-03       2.163255702542e+04 
       8.826199374763e-03       2.177746938516e+04 
       8.953160787016e-03       2.191897353254e+04 
       9.080178415459e-03       2.205710788486e+04 
       9.207250659091e-03       2.219191147830e+04 
       9.334376017655e-03       2.232342142541e+04 
       9.461553085572e-03       2.245167557630e+04 
       9.588780546346e-03       2.257671476559e+04 
       9.716057167395e-03       2.269856878329e+04 
       9.843381795262e-03       2.281728483238e+04 
       9.970753351189e-03       2.293289080394e+04 
       1.009817082702e-02       2.304543070763e+04 
       1.022563328138e-02       2.315493892914e+04 
       1.035313983621e-02       2.326144416778e+04 
       1.048068967341e-02       2.336497574206e+04 
       1.060828203188e-02       2.346560022786e+04 
       1.073591620467e-02       2.356334101505e+04 
       1.086359153639e-02       2.365820588426e+04 
       1.099130742072e-02       2.375025508820e+04 
       1.111906329821e-02       2.383952135558e+04 
       1.124685865418e-02       2.392600814723e+04 
       1.137469301670e-02       2.400979385188e+04 
       1.150256595483e-02       2.409088169634e+04 
       1.163047707693e-02       2.416931582146e+04 
       1.175842602905e-02       2.424512665830e+04 
       1.188641249350e-02       2.431833953378e+04 
       1.201443618746e-02       2.438898993713e+04 
       1.214249686173e-02       2.445711235104e+04 
       1.227059429957e-02       2.452273566166e+04 
       1.239872831558e-02       2.458591227755e+04 
       1.252689875467e-02       2.464661462361e+04 
       1.265510549116e-02       2.470493477329e+04 
       1.278334842789e-02       2.476087148503e+04 
       1.291162749538e-02       2.481446428007e+04 
       1.303994265110e-02       2.486573609394e+04 
       1.316829387881e-02       2.491471174725e+04 
       1.329668118784e-02       2.496143771875e+04 
       1.342510461258e-02       2.500592006799e+04 
       1.355356421189e-02       2.504821178683e+04 
       1.368206006859e-02       2.508830690351e+04 
       1.381059228906e-02       2.512627557073e+04 
       1.393916100277e-02       2.516210947591e+04 
       1.406776636193e-02       2.519585310375e+04 
       1.419640854111e-02       2.522753706358e+04 
       1.432508773700e-02       2.525718482691e+04 
       1.445380416806e-02       2.528481089609e+04 
       1.458255807434e-02       2.531044040793e+04 
       1.471134971720e-02       2.533412049786e+04 
       1.484017937920e-02       2.535585565694e+04 
       1.496904736387e-02       2.537568526718e+04 
       1.509795399561e-02       2.539363906957e+04 
       1.522689961960e-02       2.540972225160e+04 
       1.535588460169e-02       2.542397349850e+04 
       1.548490932832e-02       2.543641372948e+04 
       1.561397420656e-02       2.544706993188e+04 
       1.574307966400e-02       2.545597225784e+04 
       1.587222614882e-02       2.546312418396e+04 
       1.600141412980e-02       2.546857498100e+04 
       1.613064409636e-02       2.547232193026e+04 
       1.625991655862e-02       2.547440580500e+04 
       1.638923204749e-02       2.547484725387e+04 
       1.651859111480e-02       2.547366516945e+04 
       1.664799433338e-02       2.547090612851e+04 
       1.677744229721e-02       2.546655929232e+04 
       1.690693562161e-02       2.546068413038e+04 
       1.703647494338e-02       2.545323392870e+04 
       1.716606092099e-02       2.544428655728e+04 
       1.729569423481e-02       2.543386850968e+04 
       1.742537558732e-02       2.542196988030e+04 
       1.755510570338e-02       2.540864830564e+04 
       1.768488533045e-02       2.539389884319e+04 
       1.781471523888e-02       2.537774680779e+04 
       1.794459622222e-02       2.536021534712e+04 
       1.807452909752e-02       2.534133507854e+04 
       1.820451470563e-02       2.532110271384e+04 
       1.833455391158e-02       2.529955665299e+04 
       1.846464760492e-02       2.527673501645e+04 
       1.859479670009e-02       2.525261097352e+04 
       1.872500213684e-02       2.522727348567e+04 
       1.885526488061e-02       2.520066660595e+04 
       1.898558592297e-02       2.517283393458e+04 
       1.911596628205e-02       2.514381651583e+04 
       1.924640700304e-02       2.511363222999e+04 
       1.937690915863e-02       2.508226552867e+04 
       1.950747384953e-02       2.504980062557e+04 
       1.963810220498e-02       2.501618134488e+04 
       1.976879538329e-02       2.498147500679e+04 
       1.989955457238e-02       2.494568165428e+04 
       2.003038099040e-02       2.490880395907e+04 
       2.016127588626e-02       2.487091716382e+04 
       2.029224054028e-02       2.483200540704e+04 
       2.042327626483e-02       2.479202259190e+04 
       2.055438440499e-02       2.475112009674e+04 
       2.068556633919e-02       2.470919691252e+04 
       2.081682347996e-02       2.466635275211e+04 
       2.094815727463e-02       2.462253366841e+04 
       2.107956920606e-02       2.457780267291e+04 
       2.121106079346e-02       2.453219037688e+04 
       2.134263359313e-02       2.448566658964e+04 
       2.147428919931e-02       2.443824880523e+04 
       2.160602924503e-02       2.439001475051e+04 
       2.173785540298e-02       2.434093153169e+04 
       2.186976938640e-02       2.429105530203e+04 
       2.200177295002e-02       2.424029274243e+04 
       2.213386789100e-02       2.418882357510e+04 
       2.226605604995e-02       2.413658148639e+04 
       2.239833931193e-02       2.408346910262e+04 
       2.253071960749e-02       2.402974717493e+04 
       2.266319891380e-02       2.397522522193e+04 
       2.279577925570e-02       2.392001615445e+04 
       2.292846270690e-02       2.386409023917e+04 
       2.306125139117e-02       2.380753725084e+04 
       2.319414748354e-02       2.375020822689e+04 
       2.332715321158e-02       2.369239094381e+04 
       2.346027085672e-02       2.363375451387e+04 
       2.359350275556e-02       2.357457857173e+04 
       2.372685130130e-02       2.351479277726e+04 
       2.386031894514e-02       2.345442661683e+04 
       2.399390819777e-02       2.339346627403e+04 
       2.412762163093e-02       2.333194361699e+04 
       2.426146187892e-02       2.326987118477e+04 
       2.439543164029e-02       2.320725798384e+04 
       2.452953367946e-02       2.314403781800e+04 
       2.466377082853e-02       2.308037120952e+04 
       2.479814598899e-02       2.301623804589e+04 
       2.493266213362e-02       2.295158792478e+04 
       2.506732230841e-02       2.288646879137e+04 
       2.520212963448e-02       2.282086125095e+04 
       2.533708731018e-02       2.275481399947e+04 
       2.547219861317e-02       2.268829900447e+04 
       2.560746690259e-02       2.262138779531e+04 
       2.574289562134e-02       2.255410115384e+04 
       2.587848829840e-02       2.248637284886e+04 
       2.601424855124e-02       2.241828404173e+04 
       2.615018008833e-02       2.234974000713e+04 
       2.628628671169e-02       2.228088514709e+04 
       2.642257231958e-02       2.221169370857e+04 
       2.655904090928e-02       2.214208714813e+04 
       2.669569657994e-02       2.207218211706e+04 
       2.683254353554e-02       2.200203165921e+04 
       2.696958608796e-02       2.193148565563e+04 
       2.710682866020e-02       2.186058205539e+04 
       2.724427578962e-02       2.178950797865e+04 
       2.738193213142e-02       2.171812018801e+04 
       2.751980246214e-02       2.164649103892e+04 
       2.765789168337e-02       2.157454219986e+04 
       2.779620482556e-02       2.150234146647e+04 
       2.793474705194e-02       2.142991033810e+04 
       2.807352366270e-02       2.135721533018e+04 
       2.821254009921e-02       2.128432068013e+04 
       2.835180194845e-02       2.121126082586e+04 
       2.849131494763e-02       2.113795652239e+04 
       2.863108498899e-02       2.106450046168e+04 
       2.877111812472e-02       2.099077621406e+04 
       2.891142057220e-02       2.091685231756e+04 
       2.905199871931e-02       2.084286711068e+04 
       2.919285913007e-02       2.076867283540e+04 
       2.933400855045e-02       2.069432250521e+04 
       2.947545391441e-02       2.061983294939e+04 
       2.961720235026e-02       2.054517608583e+04 
       2.975926118717e-02       2.047044299822e+04 
       2.990163796208e-02       2.039555629580e+04 
       3.004434042682e-02       2.032054078469e+04 
       3.018737655555e-02       2.024544782116e+04 
       3.033075455253e-02       2.017023591774e+04 
       3.047448286026e-02       2.009494646531e+04 
       3.061857016788e-02       2.001955162400e+04 
       3.076302542009e-02       1.994408134704e+04 
       3.090785782629e-02       1.986853644743e+04 
       3.105307687032e-02       1.979294315295e+04 
       3.119869232049e-02       1.971728541330e+04 
       3.134471424015e-02       1.964158501345e+04 
       3.149115299874e-02       1.956580804863e+04 
       3.163801928332e-02       1.948996836950e+04 
       3.178532411072e-02       1.941413301483e+04 
       3.193307884017e-02       1.933823108607e+04 
       3.208129518661e-02       1.926237142294e+04 
       3.222998523465e-02       1.918645179918e+04 
       3.237916145315e-02       1.911051573366e+04 
       3.252883671060e-02       1.903456075403e+04 
       3.267902429120e-02       1.895859087991e+04 
       3.282973791180e-02       1.888255227904e+04 
       3.298099173971e-02       1.880673272318e+04 
       3.313280041138e-02       1.873077310342e+04 
       3.328517905210e-02       1.865478713155e+04 
       3.343814329670e-02       1.857887952032e+04 
       3.359170931139e-02       1.850294407215e+04 
       3.374589381675e-02       1.842706685725e+04 
       3.390071411198e-02       1.835115989424e+04 
       3.405618810047e-02       1.827545476400e+04 
       3.421233431678e-02       1.819968018420e+04 
       3.436917195518e-02       1.812386163392e+04 
       3.452672089976e-02       1.804818198670e+04 
       3.468500175632e-02       1.797251152821e+04 
       3.484403588603e-02       1.789686892221e+04 
       3.500384544118e-02       1.782130198134e+04 
       3.516445340293e-02       1.774573356302e+04 
       3.532588362145e-02       1.767032958757e+04 
       3.548816085839e-02       1.759486108348e+04 
       3.565131083206e-02       1.751954916633e+04 
       3.581536026536e-02       1.744419984285e+04 
       3.598033693675e-02       1.736892412896e+04 
       3.614626973450e-02       1.729376044951e+04 
       3.631318871440e-02       1.721863352292e+04 
       3.648112516130e-02       1.714351678359e+04 
       3.665011165467e-02       1.706852244813e+04 
       3.682018213864e-02       1.699357948723e+04 
       3.699137199672e-02       1.691868373027e+04 
       3.716371813175e-02       1.684388219016e+04 
       3.733725905139e-02       1.676909938547e+04 
       3.751203495968e-02       1.669440713516e+04 
       3.768808785517e-02       1.661982206727e+04 
       3.786546163621e-02       1.654515338540e+04 
       3.804420221400e-02       1.647066882516e+04 
       3.822435763412e-02       1.639619603112e+04 
       3.840597820729e-02       1.632180770331e+04 
       3.858911665022e-02       1.624744979979e+04 
       3.877382823744e-02       1.617313102270e+04 
       3.896017096531e-02       1.609895358309e+04 
       3.914820572912e-02       1.602476916952e+04 
       3.933799651479e-02       1.595057256982e+04 
       3.952961060649e-02       1.587650185173e+04 
       3.972311881184e-02       1.580245285369e+04 
       3.991859570646e-02       1.572843587563e+04 
       4.011611989981e-02       1.565443318422e+04 
       4.031577432478e-02       1.558043943585e+04 
       4.051764655330e-02       1.550654352916e+04 
       4.072182914103e-02       1.543263631697e+04 
       4.092842000428e-02       1.535871315147e+04 
       4.113752283270e-02       1.528483257862e+04 
       4.134924754215e-02       1.521091454665e+04 
       4.156371077201e-02       1.513698915396e+04 
       4.178103643268e-02       1.506308879766e+04 
       4.200135630908e-02       1.498914724057e+04 
       4.222481072715e-02       1.491522335454e+04 
       4.245154929133e-02       1.484123220807e+04 
       4.268173170212e-02       1.476717369242e+04 
       4.291552866430e-02       1.469311242212e+04 
       4.315312289772e-02       1.461901362321e+04 
       4.339471026507e-02       1.454475254198e+04 
       4.364050103247e-02       1.447040659393e+04 
       4.389072128219e-02       1.439600764892e+04 
       4.414561449945e-02       1.432147554539e+04 
       4.440544335924e-02       1.424683006954e+04 
       4.467049174356e-02       1.417203665559e+04 
       4.494106702499e-02       1.409707669953e+04 
       4.521750265889e-02       1.402197464460e+04 
       4.550016113459e-02       1.394663812905e+04 
       4.578943734550e-02       1.387110186285e+04 
       4.608576244960e-02       1.379531700017e+04 
       4.638960830631e-02       1.371925619893e+04 
       4.670149259324e-02       1.364291794626e+04 
       4.702198472785e-02       1.356625796395e+04 
       4.735171274612e-02       1.348925677787e+04 
       4.769137132355e-02       1.341186193766e+04 
       4.804173116565e-02       1.333404604784e+04 
       4.840365004720e-02       1.325573082375e+04 
       4.877808584554e-02       1.317692367049e+04 
       4.916611199626e-02       1.309759624706e+04 
       4.956893590514e-02       1.301763326302e+04 
       4.998792098423e-02       1.293690900966e+04 
       5.042461315084e-02       1.285545985546e+04 
       5.088077284597e-02       1.277314039540e+04 
       5.135841390588e-02       1.268986489899e+04 
       5.185985097268e-02       1.260551902537e+04 
       5.238775757251e-02       1.251993824920e+04 
       5.294523753990e-02       1.243297657572e+04 
       5.353591313136e-02       1.234440296012e+04 
       5.416403393891e-02       1.225394169067e+04 
       5.483461152136e-02       1.216132403277e+04 
       5.555358534914e-02       1.206608842134e+04 
       5.632802581481e-02       1.196778337594e+04 
       5.716637887099e-02       1.186566581219e+04 
       5.807875266862e-02       1.175880156443e+04 
       5.907723625763e-02       1.164593388671e+04 
       6.017621843407e-02       1.152542216123e+04 
       6.139263231739e-02       1.139486963672e+04 
