# dimensionless [l(l+1)/2pi] C_l's for scalar mode
# for l=2 to 3000, i.e. number of multipoles equal to 2999
#
# -> if you prefer output in CAMB/HealPix/LensPix units/order, set 'format' to 'camb' in input file
# -> if you don't want to see such a header, set 'headers' to 'no' in input file
# -> for CMB lensing (phi), these are C_l^phi-phi for the lensing potential.
#    Remember the conversion factors:
#    C_l^dd (deflection) = l(l+1) C_l^phi-phi
#    C_l^gg (shear/convergence) = 1/4 (l(l+1))^2 C_l^phi-phi
#
# 1:l     2:TT                     3:EE                     4:TE                     5:BB                     6:phiphi                 7:TPhi                   8:Ephi               
    2       1.434898041160e-10       5.120179841519e-15       3.941693158731e-13       0.000000000000e+00       8.295087818130e-09       4.689818002265e-10      -2.069961177812e-12 
    3       1.352895235847e-10       7.272963086772e-15       4.620913028499e-13       0.000000000000e+00       5.166018872967e-09       3.331962727551e-10      -1.657325715281e-12 
    4       1.274901185820e-10       7.071366817394e-15       4.487734650060e-13       0.000000000000e+00       3.599279391130e-09       2.523861550401e-10      -1.177728919082e-12 
    5       1.215458784801e-10       5.382209811411e-15       3.963858402047e-13       0.000000000000e+00       2.687312775932e-09       1.994321578894e-10      -7.494945577919e-13 
    6       1.173472510826e-10       3.407934704090e-15       3.302963940142e-13       0.000000000000e+00       2.097649427085e-09       1.623385374263e-10      -4.080036203556e-13 
    7       1.145496234785e-10       1.921982391860e-15       2.661616670883e-13       0.000000000000e+00       1.690383717827e-09       1.350745950253e-10      -1.621209245243e-13 
    8       1.127555212240e-10       1.102595148535e-15       2.121134085706e-13       0.000000000000e+00       1.396182869918e-09       1.143563832273e-10      -5.637379507015e-15 
    9       1.117759173885e-10       7.630671079561e-16       1.714817979167e-13       0.000000000000e+00       1.175852027541e-09       9.825252941441e-11       7.615632893797e-14 
   10       1.114289343330e-10       6.416358251261e-16       1.445258190303e-13       0.000000000000e+00       1.005516078761e-09       8.546593820231e-11       1.021542264839e-13 
   11       1.114911586688e-10       5.698203608741e-16       1.297186331425e-13       0.000000000000e+00       8.467528770793e-10       7.532400047896e-11       9.187013002247e-14 
   12       1.119355605043e-10       4.964597165572e-16       1.245070629185e-13       0.000000000000e+00       7.398121967973e-10       6.669760609026e-11       6.312370179831e-14 
   13       1.126508170312e-10       4.342783832224e-16       1.260358180407e-13       0.000000000000e+00       6.520318276278e-10       5.943952743965e-11       2.907452175044e-14 
   14       1.135791288158e-10       4.032050768050e-16       1.317085470420e-13       0.000000000000e+00       5.789947718458e-10       5.334802785742e-11      -9.899321335803e-16 
   15       1.147023115107e-10       4.061958749606e-16       1.394328559382e-13       0.000000000000e+00       5.175239955012e-10       4.820031190322e-11      -2.218448458507e-14 
   16       1.159452546656e-10       4.334431616359e-16       1.478767344253e-13       0.000000000000e+00       4.652637069456e-10       4.376784257239e-11      -3.331079216037e-14 
   17       1.173638575491e-10       4.752843593685e-16       1.562822577015e-13       0.000000000000e+00       4.204338121231e-10       3.981852534433e-11      -3.583008423693e-14 
   18       1.188688681356e-10       5.295601315001e-16       1.643079103897e-13       0.000000000000e+00       3.815236220870e-10       3.638386953710e-11      -3.220140025262e-14 
   19       1.204601957439e-10       6.003164269303e-16       1.720697745175e-13       0.000000000000e+00       3.479174996258e-10       3.341822757365e-11      -2.498967001627e-14 
   20       1.221284292154e-10       6.927766153953e-16       1.798321370339e-13       0.000000000000e+00       3.183201756999e-10       3.075173247796e-11      -1.731396071124e-14 
   21       1.238738915315e-10       8.088870370014e-16       1.878081451309e-13       0.000000000000e+00       2.922666825006e-10       2.837505967848e-11      -1.085675719325e-14 
   22       1.256705818957e-10       9.487786778581e-16       1.961620084812e-13       0.000000000000e+00       2.691335424218e-10       2.629021439693e-11      -6.763702812929e-15 
   23       1.275298052190e-10       1.111384962933e-15       2.048470287579e-13       0.000000000000e+00       2.486023704240e-10       2.445916477805e-11      -5.095900194653e-15 
   24       1.294510765259e-10       1.294975738015e-15       2.136931075367e-13       0.000000000000e+00       2.301981820891e-10       2.280518283614e-11      -5.393331589821e-15 
   25       1.314250497456e-10       1.499645493181e-15       2.224649578580e-13       0.000000000000e+00       2.137045350091e-10       2.128937077783e-11      -7.062568887350e-15 
   26       1.334268580926e-10       1.725878957823e-15       2.308644432519e-13       0.000000000000e+00       1.988231369209e-10       1.987694839121e-11      -9.331482003265e-15 
   27       1.354646558691e-10       1.973945370378e-15       2.386194686304e-13       0.000000000000e+00       1.853758392807e-10       1.858548230407e-11      -1.148145261448e-14 
   28       1.375460901358e-10       2.244085631668e-15       2.454610681217e-13       0.000000000000e+00       1.731311522539e-10       1.743644365739e-11      -1.283726505096e-14 
   29       1.396766922603e-10       2.537316038556e-15       2.512461833869e-13       0.000000000000e+00       1.620263088315e-10       1.641762248886e-11      -1.332132437421e-14 
   30       1.418476920138e-10       2.854946749509e-15       2.558676831824e-13       0.000000000000e+00       1.519415558540e-10       1.549141830014e-11      -1.308453963139e-14 
   31       1.440401645272e-10       3.198367649031e-15       2.592405314345e-13       0.000000000000e+00       1.426706857094e-10       1.461295438448e-11      -1.233425962684e-14 
   32       1.462601585350e-10       3.568990542144e-15       2.613845298743e-13       0.000000000000e+00       1.341659206672e-10       1.378416660660e-11      -1.126046778788e-14 
   33       1.485141753600e-10       3.968294981652e-15       2.623763216267e-13       0.000000000000e+00       1.263674566862e-10       1.301863417272e-11      -1.009050841467e-14 
   34       1.508009232964e-10       4.397707433051e-15       2.622976201927e-13       0.000000000000e+00       1.191664979527e-10       1.232453783634e-11      -9.066042028711e-15 
   35       1.531185905263e-10       4.858111583277e-15       2.611199946855e-13       0.000000000000e+00       1.125261655774e-10       1.169545598495e-11      -8.281065255141e-15 
   36       1.554582712078e-10       5.350157900515e-15       2.587802749577e-13       0.000000000000e+00       1.063930357355e-10       1.111532090993e-11      -7.788964477591e-15 
   37       1.578077900169e-10       5.874434890715e-15       2.552125551290e-13       0.000000000000e+00       1.006871337304e-10       1.056595234434e-11      -7.621327317052e-15 
   38       1.601749294195e-10       6.431643963118e-15       2.503557203796e-13       0.000000000000e+00       9.539369504743e-11       1.004688414510e-11      -7.706565029398e-15 
   39       1.625707739294e-10       7.022472498162e-15       2.441477162915e-13       0.000000000000e+00       9.049594434475e-11       9.561502365472e-12      -7.921955601217e-15 
   40       1.650029169336e-10       7.647541546148e-15       2.365230965902e-13       0.000000000000e+00       8.594718870694e-11       9.111514096537e-12      -8.112693586925e-15 
   41       1.674747079079e-10       8.307447657260e-15       2.274177774836e-13       0.000000000000e+00       8.168708341065e-11       8.696744954630e-12      -8.132882883177e-15 
   42       1.699837829622e-10       9.002915032003e-15       2.167859799783e-13       0.000000000000e+00       7.770307104894e-11       8.314872394680e-12      -7.989675433913e-15 
   43       1.725222972165e-10       9.734685700872e-15       2.045882301887e-13       0.000000000000e+00       7.398455039156e-11       7.961311413726e-12      -7.742475939780e-15 
   44       1.750767225778e-10       1.050347660387e-14       1.907867506066e-13       0.000000000000e+00       7.050443900208e-11       7.629061338334e-12      -7.464695703319e-15 
   45       1.776332797483e-10       1.130992391593e-14       1.753497334935e-13       0.000000000000e+00       6.722884243187e-11       7.310771956197e-12      -7.228638082142e-15 
   46       1.801972818034e-10       1.215439883802e-14       1.582656554723e-13       0.000000000000e+00       6.415260031994e-11       7.006094729385e-12      -7.052785502105e-15 
   47       1.827787715993e-10       1.303713481252e-14       1.395332634237e-13       0.000000000000e+00       6.127213565818e-11       6.716228848730e-12      -6.940183265007e-15 
   48       1.853869922850e-10       1.395827312612e-14       1.191579360084e-13       0.000000000000e+00       5.857473451195e-11       6.441823033246e-12      -6.892950351737e-15 
   49       1.880302558238e-10       1.491785863847e-14       9.715194140434e-14       0.000000000000e+00       5.603786657455e-11       6.182928062631e-12      -6.912201167074e-15 
   50       1.907145818796e-10       1.591590129666e-14       7.352576407364e-14       0.000000000000e+00       5.363596967497e-11       5.939134134348e-12      -6.996140760325e-15 
   51       1.934394839515e-10       1.695259027283e-14       4.825871167546e-14       0.000000000000e+00       5.136455065720e-11       5.710137013781e-12      -7.133922509895e-15 
   52       1.962008121644e-10       1.802813056847e-14       2.132077524691e-14       0.000000000000e+00       4.922145194891e-11       5.495243508649e-12      -7.309987907723e-15 
   53       1.989916980812e-10       1.914268116112e-14      -7.319295833034e-15       0.000000000000e+00       4.719963896151e-11       5.293162225632e-12      -7.505587049935e-15 
   54       2.018023653598e-10       2.029635382877e-14      -3.769415638701e-14       0.000000000000e+00       4.528687188944e-11       5.101964800492e-12      -7.698614427571e-15 
   55       2.046234116836e-10       2.148920062622e-14      -6.983456907198e-14       0.000000000000e+00       4.346943764732e-11       4.919616246429e-12      -7.869030748659e-15 
   56       2.074570430678e-10       2.272117536384e-14      -1.037581839620e-13       0.000000000000e+00       4.174518321350e-11       4.745809100561e-12      -8.017081850293e-15 
   57       2.103082987450e-10       2.399216050020e-14      -1.394782562805e-13       0.000000000000e+00       4.011314517960e-11       4.580517010325e-12      -8.149318129999e-15 
   58       2.131817714853e-10       2.530197606932e-14      -1.770068882730e-13       0.000000000000e+00       3.856960697259e-11       4.423449300552e-12      -8.273457317635e-15 
   59       2.160815534967e-10       2.665037806294e-14      -2.163550569875e-13       0.000000000000e+00       3.710792884129e-11       4.274034377038e-12      -8.398437903699e-15 
   60       2.190111823255e-10       2.803705681282e-14      -2.575326420553e-13       0.000000000000e+00       3.571837784293e-11       4.131403130099e-12      -8.534472567639e-15 
   61       2.219734715201e-10       2.946163393522e-14      -3.005452028710e-13       0.000000000000e+00       3.439082952850e-11       3.994648667748e-12      -8.690028095179e-15 
   62       2.249700805934e-10       3.092365602234e-14      -3.453834019530e-13       0.000000000000e+00       3.312396625844e-11       3.863711188001e-12      -8.861852106867e-15 
   63       2.280017520941e-10       3.242259665781e-14      -3.920312460359e-13       0.000000000000e+00       3.191785125192e-11       3.738663178895e-12      -9.042792343319e-15 
   64       2.310683617139e-10       3.395785609917e-14      -4.404690533158e-13       0.000000000000e+00       3.077116174355e-11       3.619442941758e-12      -9.224629418642e-15 
   65       2.341688605321e-10       3.552875961460e-14      -4.906733780920e-13       0.000000000000e+00       2.968111008678e-11       3.505846762503e-12      -9.398032728559e-15 
   66       2.373012172592e-10       3.713455581958e-14      -5.426169354081e-13       0.000000000000e+00       2.864336485718e-11       3.397521082917e-12      -9.552516358538e-15 
   67       2.404623604815e-10       3.877441501358e-14      -5.962685256945e-13       0.000000000000e+00       2.765197195581e-11       3.293954671958e-12      -9.676394991925e-15 
   68       2.436493159718e-10       4.044744200183e-14      -6.515963294032e-13       0.000000000000e+00       2.670094381827e-11       3.194621077063e-12      -9.759576598532e-15 
   69       2.468630153257e-10       4.215272129558e-14      -7.085787345712e-13       0.000000000000e+00       2.578957733070e-11       3.099456995518e-12      -9.802696161912e-15 
   70       2.501051588461e-10       4.388927812461e-14      -7.671955779100e-13       0.000000000000e+00       2.491807668116e-11       3.008467215252e-12      -9.809761980541e-15 
   71       2.533770620548e-10       4.565606349285e-14      -8.274249795678e-13       0.000000000000e+00       2.408594501051e-11       2.921578997420e-12      -9.785510589256e-15 
   72       2.566796285009e-10       4.745195288552e-14      -8.892433539604e-13       0.000000000000e+00       2.329194817830e-11       2.838638091170e-12      -9.735435219319e-15 
   73       2.600133225691e-10       4.927574497627e-14      -9.526254206016e-13       0.000000000000e+00       2.253407852872e-11       2.759404748420e-12      -9.665814258471e-15 
   74       2.633781422887e-10       5.112616033433e-14      -1.017544214934e-12       0.000000000000e+00       2.180951865641e-11       2.683549738621e-12      -9.583739710993e-15 
   75       2.667735921417e-10       5.300184013163e-14      -1.083971099160e-12       0.000000000000e+00       2.111460517241e-11       2.610650363538e-12      -9.497145657768e-15 
   76       2.701991124011e-10       5.490139103996e-14      -1.151875370509e-12       0.000000000000e+00       2.044573752608e-11       2.540294942326e-12      -9.413117423763e-15 
   77       2.736555176402e-10       5.682353223204e-14      -1.221222979627e-12       0.000000000000e+00       1.980237589833e-11       2.472427073111e-12      -9.332400204043e-15 
   78       2.771437723597e-10       5.876697296251e-14      -1.291977597073e-12       0.000000000000e+00       1.918452669849e-11       2.407057200476e-12      -9.253936112996e-15 
   79       2.806645401877e-10       6.073036841590e-14      -1.364100997679e-12       0.000000000000e+00       1.859182942417e-11       2.344157981950e-12      -9.176487955172e-15 
   80       2.842181660499e-10       6.271231936100e-14      -1.437553063130e-12       0.000000000000e+00       1.802353980623e-11       2.283662527045e-12      -9.098632429857e-15 
   81       2.878046583397e-10       6.471137180513e-14      -1.512291784535e-12       0.000000000000e+00       1.747851295386e-11       2.225462636300e-12      -9.018753335643e-15 
   82       2.914236710879e-10       6.672601664848e-14      -1.588273265007e-12       0.000000000000e+00       1.695518649960e-11       2.169407040324e-12      -8.935034775002e-15 
   83       2.950744861331e-10       6.875468933836e-14      -1.665451722239e-12       0.000000000000e+00       1.645156374436e-11       2.115299638842e-12      -8.845454358858e-15 
   84       2.987563625190e-10       7.079577922169e-14      -1.743779253296e-12       0.000000000000e+00       1.596569862576e-11       2.062949590906e-12      -8.748362236124e-15 
   85       3.024696902962e-10       7.284766014089e-14      -1.823205078563e-12       0.000000000000e+00       1.549727991846e-11       2.012334983882e-12      -8.644343358877e-15 
   86       3.062149961957e-10       7.490866429988e-14      -1.903676176604e-12       0.000000000000e+00       1.504627997903e-11       1.963463194844e-12      -8.534652917633e-15 
   87       3.099925819208e-10       7.697707283696e-14      -1.985137509392e-12       0.000000000000e+00       1.461246797632e-11       1.916320575418e-12      -8.420660970886e-15 
   88       3.138025124898e-10       7.905111564208e-14      -2.067532020896e-12       0.000000000000e+00       1.419540147048e-11       1.870871562280e-12      -8.303855495488e-15 
   89       3.176446045774e-10       8.112897117414e-14      -2.150800635654e-12       0.000000000000e+00       1.379441799205e-11       1.827057787641e-12      -8.185845437007e-15 
   90       3.215184148570e-10       8.320876627832e-14      -2.234882257357e-12       0.000000000000e+00       1.340862662095e-11       1.784797189745e-12      -8.068363760107e-15 
   91       3.254232283422e-10       8.528857600337e-14      -2.319713767426e-12       0.000000000000e+00       1.303689956552e-11       1.743983123351e-12      -7.953270498913e-15 
   92       3.293580467290e-10       8.736642341888e-14      -2.405230023592e-12       0.000000000000e+00       1.267786374157e-11       1.704483470234e-12      -7.842555807383e-15 
   93       3.333219033970e-10       8.944032743542e-14      -2.491365470145e-12       0.000000000000e+00       1.233022631032e-11       1.666172893596e-12      -7.737938205900e-15 
   94       3.373148879283e-10       9.150845488871e-14      -2.578059248785e-12       0.000000000000e+00       1.199382558940e-11       1.629037082521e-12      -7.639583576648e-15 
   95       3.413372548387e-10       9.356899109754e-14      -2.665250857396e-12       0.000000000000e+00       1.166872336484e-11       1.593082614232e-12      -7.547198248404e-15 
   96       3.453891035700e-10       9.562009436888e-14      -2.752878627287e-12       0.000000000000e+00       1.135488123007e-11       1.558304778420e-12      -7.460414160933e-15 
   97       3.494703713155e-10       9.765989647416e-14      -2.840879743903e-12       0.000000000000e+00       1.105215674911e-11       1.524687142692e-12      -7.378786358681e-15 
   98       3.535808258467e-10       9.968650312544e-14      -2.929190267519e-12       0.000000000000e+00       1.076029961982e-11       1.492201118025e-12      -7.301790484470e-15 
   99       3.577200583382e-10       1.016979944517e-13      -3.017745153950e-12       0.000000000000e+00       1.047894783717e-11       1.460805524218e-12      -7.228820273195e-15 
  100       3.618874761947e-10       1.036924254749e-13      -3.106478275247e-12       0.000000000000e+00       1.020762385641e-11       1.430446155346e-12      -7.159185045518e-15 
  101       3.660822958760e-10       1.056678265865e-13      -3.195322440407e-12       0.000000000000e+00       9.945730756364e-12       1.401055345210e-12      -7.092107201562e-15 
  102       3.703035357233e-10       1.076222040235e-13      -3.284209416068e-12       0.000000000000e+00       9.692548402632e-12       1.372551532793e-12      -7.026719714608e-15 
  103       3.745500087853e-10       1.095535403447e-13      -3.373069947218e-12       0.000000000000e+00       9.447229610839e-12       1.344838827708e-12      -6.962063624789e-15 
  104       3.788205741706e-10       1.114598396918e-13      -3.461834066426e-12       0.000000000000e+00       9.208992061129e-12       1.317829180405e-12      -6.897282524213e-15 
  105       3.831149452278e-10       1.133392695113e-13      -3.550432024539e-12       0.000000000000e+00       8.977731830748e-12       1.291513239521e-12      -6.832241331308e-15 
  106       3.874329776725e-10       1.151900389542e-13      -3.638793524891e-12       0.000000000000e+00       8.753485973771e-12       1.265898300766e-12      -6.766986820525e-15 
  107       3.917744165287e-10       1.170103567573e-13      -3.726847469582e-12       0.000000000000e+00       8.536242505532e-12       1.240986373015e-12      -6.701557757706e-15 
