# dimensionless [l(l+1)/2pi] C_l's for scalar mode
# for l=2 to 3000, i.e. number of multipoles equal to 2999
#
# -> if you prefer output in CAMB/HealPix/LensPix units/order, set 'format' to 'camb' in input file
# -> if you don't want to see such a header, set 'headers' to 'no' in input file
# -> for CMB lensing (phi), these are C_l^phi-phi for the lensing potential.
#    Remember the conversion factors:
#    C_l^dd (deflection) = l(l+1) C_l^phi-phi
#    C_l^gg (shear/convergence) = 1/4 (l(l+1))^2 C_l^phi-phi
#
# 1:l     2:TT                     3:EE                     4:TE                     5:BB                     6:phiphi                 7:TPhi                   8:Ephi               
    2       1.434905425383e-10       5.120180843674e-15       3.941692040586e-13       0.000000000000e+00       8.291899420920e-09       4.689294453502e-10      -2.069961174048e-12 
    3       1.352915059141e-10       7.272964319375e-15       4.620908857006e-13       0.000000000000e+00       5.161903869206e-09       3.331254277374e-10      -1.657325343754e-12 
    4       1.274940478242e-10       7.071366195023e-15       4.487728369617e-13       0.000000000000e+00       3.594829935145e-09       2.523050516618e-10      -1.177728045998e-12 
    5       1.215524913694e-10       5.382206490859e-15       3.963852114414e-13       0.000000000000e+00       2.682936387089e-09       1.993468110060e-10      -7.494930441677e-13 
    6       1.173572197230e-10       3.407930876214e-15       3.302956831146e-13       0.000000000000e+00       2.093534886549e-09       1.622520813842e-10      -4.080014150463e-13 
    7       1.145635189248e-10       1.921982229956e-15       2.661607134910e-13       0.000000000000e+00       1.686539113961e-09       1.349877119051e-10      -1.621182060489e-13 
    8       1.127739555792e-10       1.102601505527e-15       2.121122601811e-13       0.000000000000e+00       1.392544563110e-09       1.142687082351e-10      -5.634552443427e-15 
    9       1.117995016916e-10       7.630799223872e-16       1.714804253757e-13       0.000000000000e+00       1.172379946474e-09       9.816432140319e-11       7.615876920603e-14 
   10       1.114582738322e-10       6.416532514724e-16       1.445241777370e-13       0.000000000000e+00       1.002214725604e-09       8.537790494002e-11       1.021558484283e-13 
   11       1.115267755951e-10       5.698408631408e-16       1.297167599738e-13       0.000000000000e+00       8.451521442913e-10       7.526860012756e-11       9.187065052097e-14 
   12       1.119780916073e-10       4.964839157238e-16       1.245048884798e-13       0.000000000000e+00       7.383382803162e-10       6.664296583660e-11       6.312310154205e-14 
   13       1.127009532764e-10       4.343094552176e-16       1.260332397058e-13       0.000000000000e+00       6.506662281724e-10       5.938568126393e-11       2.907299795603e-14 
   14       1.136373402517e-10       4.032467643794e-16       1.317056886398e-13       0.000000000000e+00       5.777228007380e-10       5.329515558608e-11      -9.919734129337e-16 
   15       1.147691205947e-10       4.062504038874e-16       1.394296196852e-13       0.000000000000e+00       5.163337775895e-10       4.814851480408e-11      -2.218652823763e-14 
   16       1.160211527920e-10       4.335123243278e-16       1.478727118365e-13       0.000000000000e+00       4.641454773774e-10       4.371720726445e-11      -3.331236348315e-14 
   17       1.174495783974e-10       4.753713850965e-16       1.562771217552e-13       0.000000000000e+00       4.193794443085e-10       3.976910871397e-11      -3.583091338759e-14 
   18       1.189649189789e-10       5.296703087805e-16       1.643013448049e-13       0.000000000000e+00       3.805270326250e-10       3.633565446284e-11      -3.220134372506e-14 
   19       1.205670274631e-10       6.004567821900e-16       1.720614746330e-13       0.000000000000e+00       3.469716631861e-10       3.337102776106e-11      -2.498871638993e-14 
   20       1.222465525543e-10       6.929558349379e-16       1.798218171936e-13       0.000000000000e+00       3.174207277389e-10       3.070529336771e-11      -1.731227343233e-14 
   21       1.240038339497e-10       8.091148809685e-16       1.877954096663e-13       0.000000000000e+00       2.914096170647e-10       2.832927698679e-11      -1.085466813175e-14 
   22       1.258128713442e-10       9.490658591808e-16       1.961463049582e-13       0.000000000000e+00       2.683151749220e-10       2.624521119604e-11      -6.761681087996e-15 
   23       1.276849468258e-10       1.111743773279e-15       2.048277256916e-13       0.000000000000e+00       2.478192933066e-10       2.441499316079e-11      -5.094337950433e-15 
   24       1.296195490405e-10       1.295420400024e-15       2.136695035730e-13       0.000000000000e+00       2.294476911168e-10       2.276174790776e-11      -5.392436027560e-15 
   25       1.316073397686e-10       1.500192486735e-15       2.224361997709e-13       0.000000000000e+00       2.129841149731e-10       2.124658771732e-11      -7.062353315701e-15 
   26       1.336234688795e-10       1.726547271417e-15       2.308295011343e-13       0.000000000000e+00       1.981306033051e-10       1.983480207517e-11      -9.331763556346e-15 
   27       1.356760776810e-10       1.974756616074e-15       2.385772069784e-13       0.000000000000e+00       1.847091957097e-10       1.854397825167e-11      -1.148200028977e-14 
   28       1.377727923498e-10       2.245064233559e-15       2.454102556011e-13       0.000000000000e+00       1.724887221419e-10       1.739559687380e-11      -1.283785653017e-14 
   29       1.399191382552e-10       2.538489434962e-15       2.511854249366e-13       0.000000000000e+00       1.614064314283e-10       1.637743655908e-11      -1.332177405399e-14 
   30       1.421063451853e-10       2.856345618526e-15       2.557953856622e-13       0.000000000000e+00       1.513427096370e-10       1.545188339414e-11      -1.308472293936e-14 
   31       1.443154879528e-10       3.200026153923e-15       2.591549053097e-13       0.000000000000e+00       1.420916664804e-10       1.457405043946e-11      -1.233412465910e-14 
   32       1.465526050000e-10       3.570946603699e-15       2.612836698172e-13       0.000000000000e+00       1.336055481268e-10       1.374585605192e-11      -1.126000552716e-14 
   33       1.488241833713e-10       3.970590547946e-15       2.622582394862e-13       0.000000000000e+00       1.258246143641e-10       1.298086228763e-11      -1.008975039985e-14 
   34       1.511289169490e-10       4.400388739662e-15       2.621602369617e-13       0.000000000000e+00       1.186402416832e-10       1.228724385933e-11      -9.065064201239e-15 
   35       1.534649844195e-10       4.861229374439e-15       2.609610554567e-13       0.000000000000e+00       1.120155794570e-10       1.165861016810e-11      -8.279973930464e-15 
   36       1.558234721090e-10       5.353767688647e-15       2.585973137826e-13       0.000000000000e+00       1.058972755863e-10       1.107894659791e-11      -7.787894337680e-15 
   37       1.581921984862e-10       5.878597198713e-15       2.550028969212e-13       0.000000000000e+00       1.002054899766e-10       1.053012544642e-11      -7.620429441701e-15 
   38       1.605789456814e-10       6.436424447103e-15       2.501165425783e-13       0.000000000000e+00       9.492545332712e-11       1.001167402870e-11      -7.705944214341e-15 
   39       1.629948011068e-10       7.027942159375e-15       2.438760710462e-13       0.000000000000e+00       9.004039605562e-11       9.526952560383e-12      -7.921640431568e-15 
   40       1.654473633477e-10       7.653776980378e-15       2.362159180074e-13       0.000000000000e+00       8.550370439180e-11       9.077638479409e-12      -8.112618625227e-15 
   41       1.679399848999e-10       8.314531321995e-15       2.270718716719e-13       0.000000000000e+00       8.125514812688e-11       8.663528356338e-12      -8.132897775256e-15 
   42       1.704702871543e-10       9.010935563227e-15       2.163979547778e-13       0.000000000000e+00       7.728217447953e-11       8.282286586429e-12      -7.989648031990e-15 
   43       1.730304035310e-10       9.743738203697e-15       2.041544669680e-13       0.000000000000e+00       7.357418635915e-11       7.929320455698e-12      -7.742330106089e-15 
   44       1.756067812938e-10       1.051366293635e-14       1.903033919820e-13       0.000000000000e+00       7.010414935266e-11       7.597622934677e-12      -7.464424484282e-15 
   45       1.781856187907e-10       1.132135281083e-14       1.748126866572e-13       0.000000000000e+00       6.683823621600e-11       7.279840466611e-12      -7.228301839666e-15 
   46       1.807722269767e-10       1.216718546835e-14       1.576706488805e-13       0.000000000000e+00       6.377128131103e-11       6.975629365689e-12      -7.052457678893e-15 
   47       1.833766539665e-10       1.305140075585e-14       1.388758653752e-13       0.000000000000e+00       6.089970044521e-11       6.686198507546e-12      -6.939934213576e-15 
   48       1.860081507640e-10       1.397414647753e-14       1.184335590834e-13       0.000000000000e+00       5.821079865039e-11       6.412210005140e-12      -6.892845528959e-15 
   49       1.886750399326e-10       1.493547411903e-14       9.635584741366e-14       0.000000000000e+00       5.568209281331e-11       6.153731986789e-12      -6.912299212015e-15 
   50       1.913833501079e-10       1.593540049193e-14       7.265305295495e-14       0.000000000000e+00       5.328807760697e-11       5.910370458789e-12      -6.996491602623e-15 
   51       1.941325872660e-10       1.697412231321e-14       4.730425591301e-14       0.000000000000e+00       5.102425987993e-11       5.681816644251e-12      -7.134565850271e-15 
   52       1.969185886024e-10       1.805185248002e-14       2.027919486219e-14       0.000000000000e+00       4.888847725558e-11       5.467366587146e-12      -7.310951225641e-15 
   53       1.997344714535e-10       1.916875809430e-14      -8.453643283846e-15       0.000000000000e+00       4.687370568530e-11       5.265717178674e-12      -7.506883365700e-15 
   54       2.025704438891e-10       2.032495928915e-14      -3.892718608511e-14       0.000000000000e+00       4.496773235188e-11       5.074927362808e-12      -7.700239954647e-15 
   55       2.054170891767e-10       2.152051669015e-14      -7.117248140526e-14       0.000000000000e+00       4.315687631710e-11       4.892951847649e-12      -7.870966759393e-15 
   56       2.082766085722e-10       2.275539284051e-14      -1.052074836077e-13       0.000000000000e+00       4.143898218283e-11       4.719486375528e-12      -8.019310659007e-15 
   57       2.111540397173e-10       2.402947913741e-14      -1.410457667897e-13       0.000000000000e+00       3.981308139905e-11       4.554512906088e-12      -8.151828273494e-15 
   58       2.140539745840e-10       2.534260477613e-14      -1.786997652080e-13       0.000000000000e+00       3.827546162385e-11       4.397751142957e-12      -8.276244777190e-15 
   59       2.169805054121e-10       2.669453513361e-14      -2.181808014044e-13       0.000000000000e+00       3.681949733120e-11       4.248642044723e-12      -8.401507385732e-15 
   60       2.199371706478e-10       2.808497015207e-14      -2.594991143311e-13       0.000000000000e+00       3.543548041877e-11       4.106331335898e-12      -8.537838843034e-15 
   61       2.229267841883e-10       2.951354112251e-14      -3.026606128044e-13       0.000000000000e+00       3.411331305934e-11       3.969925206885e-12      -8.693714325732e-15 
   62       2.259510006336e-10       3.097980384873e-14      -3.476562206858e-13       0.000000000000e+00       3.285167579170e-11       3.839361785746e-12      -8.865878210103e-15 
   63       2.290105560729e-10       3.248324107351e-14      -3.944701791377e-13       0.000000000000e+00       3.165062608207e-11       3.714706907771e-12      -9.047171176878e-15 
   64       2.321053195465e-10       3.402326230907e-14      -4.430830359793e-13       0.000000000000e+00       3.050884065240e-11       3.595891490447e-12      -9.229365800864e-15 
   65       2.352342352810e-10       3.559920216985e-14      -4.934715699098e-13       0.000000000000e+00       2.942353690503e-11       3.482703680781e-12      -9.403122420283e-15 
   66       2.383952649253e-10       3.721031870532e-14      -5.456087147302e-13       0.000000000000e+00       2.839039434731e-11       3.374781002618e-12      -9.557945006114e-15 
   67       2.415853297854e-10       3.885579173274e-14      -5.994634835664e-13       0.000000000000e+00       2.740347601623e-11       3.271602503962e-12      -9.682137031418e-15 
   68       2.448014492031e-10       4.053473544756e-14      -6.550042733963e-13       0.000000000000e+00       2.645681187652e-11       3.172633178697e-12      -9.765596964886e-15 
   69       2.480445526628e-10       4.224624294828e-14      -7.122097255538e-13       0.000000000000e+00       2.554969721811e-11       3.077808766374e-12      -9.808961159628e-15 
   70       2.513163398960e-10       4.398934777989e-14      -7.710599398299e-13       0.000000000000e+00       2.468233163010e-11       2.987135530075e-12      -9.816242788040e-15 
   71       2.546181263983e-10       4.576300917590e-14      -8.315332993620e-13       0.000000000000e+00       2.385421659546e-11       2.900542786418e-12      -9.792184117090e-15 
   72       2.579508162565e-10       4.756611075626e-14      -8.936064813088e-13       0.000000000000e+00       2.306411942147e-11       2.817878947357e-12      -9.742285002308e-15 
   73       2.613148749763e-10       4.939745922532e-14      -9.572544675263e-13       0.000000000000e+00       2.231003716997e-11       2.738907561994e-12      -9.672831381787e-15 
   74       2.647103023094e-10       5.125578306980e-14      -1.022450555243e-12       0.000000000000e+00       2.158916058779e-11       2.663303358384e-12      -9.590923770176e-15 
   75       2.681366050811e-10       5.313973125673e-14      -1.089166367734e-12       0.000000000000e+00       2.089783803705e-11       2.590648285339e-12      -9.504505752679e-15 
   76       2.715932253979e-10       5.504791813418e-14      -1.157371463731e-12       0.000000000000e+00       2.023248064846e-11       2.520535041788e-12      -9.420670662026e-15 
   77       2.750809754867e-10       5.697907046441e-14      -1.227032059824e-12       0.000000000000e+00       1.959254807257e-11       2.452908210190e-12      -9.340162133595e-15 
   78       2.786008163538e-10       5.893190496194e-14      -1.298112093391e-12       0.000000000000e+00       1.897804419298e-11       2.387778428222e-12      -9.261917808585e-15 
   79       2.821534080706e-10       6.090508412050e-14      -1.370573605611e-12       0.000000000000e+00       1.838860770732e-11       2.325118694183e-12      -9.184695481195e-15 
   80       2.857390919387e-10       6.289721585842e-14      -1.444376743908e-12       0.000000000000e+00       1.782349535815e-11       2.264862612928e-12      -9.107066285368e-15 
   81       2.893578726553e-10       6.490685316401e-14      -1.519479764395e-12       0.000000000000e+00       1.728156516385e-11       2.206902641785e-12      -9.027407881535e-15 
   82       2.930094004789e-10       6.693249374093e-14      -1.595839034327e-12       0.000000000000e+00       1.676125964950e-11       2.151088336488e-12      -8.943897643359e-15 
   83       2.966929533940e-10       6.897257965355e-14      -1.673409034543e-12       0.000000000000e+00       1.626058907777e-11       2.097224597097e-12      -8.854505844477e-15 
   84       3.004077870990e-10       7.102550643575e-14      -1.752142113542e-12       0.000000000000e+00       1.577761422696e-11       2.045121356807e-12      -8.757576489858e-15 
   85       3.041542906993e-10       7.308965292891e-14      -1.831987697490e-12       0.000000000000e+00       1.531202341519e-11       1.994755955163e-12      -8.653695368682e-15 
   86       3.079329907951e-10       7.516335576326e-14      -1.912892953126e-12       0.000000000000e+00       1.486378738364e-11       1.946134592029e-12      -8.544120633165e-15 
   87       3.117441892132e-10       7.724490014154e-14      -1.994803022790e-12       0.000000000000e+00       1.443267474420e-11       1.899242401653e-12      -8.430225706321e-15 
   88       3.155879513539e-10       7.933251964350e-14      -2.077661022697e-12       0.000000000000e+00       1.401824360610e-11       1.854042563180e-12      -8.313502345091e-15 
   89       3.194640945385e-10       8.142439603029e-14      -2.161408041207e-12       0.000000000000e+00       1.361983320256e-11       1.810475411162e-12      -8.195563703467e-15 
   90       3.233721763562e-10       8.351865904888e-14      -2.245983137100e-12       0.000000000000e+00       1.323655551743e-11       1.768457546072e-12      -8.078147395611e-15 
   91       3.273114830117e-10       8.561338623651e-14      -2.331323337848e-12       0.000000000000e+00       1.286728691183e-11       1.727880944815e-12      -7.963118558983e-15 
   92       3.312810176718e-10       8.770660272511e-14      -2.417363637887e-12       0.000000000000e+00       1.251065975076e-11       1.688612071238e-12      -7.852472917462e-15 
   93       3.352798150753e-10       8.979632891919e-14      -2.504038613044e-12       0.000000000000e+00       1.216538631282e-11       1.650524406060e-12      -7.747933924505e-15 
   94       3.393079647960e-10       9.188073215701e-14      -2.591287545318e-12       0.000000000000e+00       1.183130443295e-11       1.613603565194e-12      -7.649668230684e-15 
   95       3.433657210494e-10       9.395799760381e-14      -2.679050069257e-12       0.000000000000e+00       1.150847437465e-11       1.577856420218e-12      -7.557381786839e-15 
   96       3.474531830655e-10       9.602628286612e-14      -2.767264644668e-12       0.000000000000e+00       1.119685679848e-11       1.543278662671e-12      -7.470706074852e-15 
   97       3.515702879147e-10       9.808371845336e-14      -2.855868577072e-12       0.000000000000e+00       1.089630894990e-11       1.509854373308e-12      -7.389195598772e-15 
   98       3.557168033336e-10       1.001284082394e-13      -2.944798038162e-12       0.000000000000e+00       1.060658084708e-11       1.477555591352e-12      -7.312325375938e-15 
   99       3.598923205504e-10       1.021584299241e-13      -3.033988086262e-12       0.000000000000e+00       1.032731146875e-11       1.446341883755e-12      -7.239488428114e-15 
  100       3.640962471111e-10       1.041718354949e-13      -3.123372686779e-12       0.000000000000e+00       1.005802494202e-11       1.416159914447e-12      -7.169993272607e-15 
  101       3.683277997050e-10       1.061666516886e-13      -3.212884732668e-12       0.000000000000e+00       9.798126730242e-12       1.386943013594e-12      -7.103061413400e-15 
  102       3.725859969906e-10       1.081408804527e-13      -3.302456064883e-12       0.000000000000e+00       9.546899820803e-12       1.358610746850e-12      -7.037824832276e-15 
  103       3.768696524212e-10       1.100924994068e-13      -3.392017492837e-12       0.000000000000e+00       9.303500912989e-12       1.331068484617e-12      -6.973323479945e-15 
  104       3.811776256097e-10       1.120195069962e-13      -3.481499097922e-12       0.000000000000e+00       9.067151244861e-12       1.304229279377e-12      -6.908699927335e-15 
  105       3.855096305463e-10       1.139200639032e-13      -3.570831146703e-12       0.000000000000e+00       8.837746642712e-12       1.278083791221e-12      -6.843818669546e-15 
  106       3.898655236921e-10       1.157923716878e-13      -3.659943339793e-12       0.000000000000e+00       8.615323157073e-12       1.252639049185e-12      -6.778726193031e-15 
  107       3.942450509098e-10       1.176346307428e-13      -3.748764563094e-12       0.000000000000e+00       8.399868129552e-12       1.227896803309e-12      -6.713460947911e-15 
