# dimensionless total lensed [l(l+1)/2pi] C_l's
# for l=2 to 2500, i.e. number of multipoles equal to 2499
#
# -> if you prefer output in CAMB/HealPix/LensPix units/order, set 'format' to 'camb' in input file
# -> if you don't want to see such a header, set 'headers' to 'no' in input file
# -> for CMB lensing (phi), these are C_l^phi-phi for the lensing potential.
#    Remember the conversion factors:
#    C_l^dd (deflection) = l(l+1) C_l^phi-phi
#    C_l^gg (shear/convergence) = 1/4 (l(l+1))^2 C_l^phi-phi
#
# 1:l     2:TT                     3:EE                     4:TE                     5:BB                     6:phiphi                 7:TPhi                   8:Ephi               
    2       2.854592598875e-10       7.806856265376e-15       5.603664762376e-13       4.801747822663e-15       8.291899420920e-09       4.689294453502e-10      -2.069961174048e-12 
    3       2.442172507327e-10       1.011713999251e-14       4.540116059444e-13       4.836831621881e-15       5.161903869206e-09       3.331254277374e-10      -1.657325343754e-12 
    4       2.251815788707e-10       9.681882414933e-15       3.881843741819e-13       4.207304236472e-15       3.594829935145e-09       2.523050516618e-10      -1.177728045998e-12 
    5       2.145315288134e-10       7.469296325195e-15       3.248958609322e-13       3.296507794489e-15       2.682936387089e-09       1.993468110060e-10      -7.494930441677e-13 
    6       2.075560817487e-10       4.912876502135e-15       2.623278567420e-13       2.392804705300e-15       2.093534886549e-09       1.622520813842e-10      -4.080014150463e-13 
    7       2.030037388551e-10       2.947519331620e-15       2.058527052742e-13       1.655106547853e-15       1.686539113961e-09       1.349877119051e-10      -1.621182060489e-13 
    8       2.000256745383e-10       1.817313568394e-15       1.590657258659e-13       1.136562905684e-15       1.392544563110e-09       1.142687082351e-10      -5.634552443427e-15 
    9       1.981875686883e-10       1.330408810776e-15       1.236112375929e-13       8.253275799398e-16       1.172379946474e-09       9.816432140319e-11       7.615876920603e-14 
   10       1.971659515159e-10       1.185504664080e-15       9.941697500530e-14       6.794870702803e-16       1.002214725604e-09       8.537790494002e-11       1.021558484283e-13 
   11       1.966544421482e-10       1.168675273242e-15       8.518077877615e-14       6.508756416852e-16       8.451521442913e-10       7.526860012756e-11       9.187065052097e-14 
   12       1.965780219040e-10       1.193005607374e-15       7.873830202233e-14       6.974963281173e-16       7.383382803162e-10       6.664296583660e-11       6.312310154205e-14 
   13       1.967968473444e-10       1.248870584748e-15       7.762189834972e-14       7.886174779983e-16       6.506662281724e-10       5.938568126393e-11       2.907299795603e-14 
   14       1.972351299347e-10       1.345595842483e-15       7.954248774861e-14       9.040479365439e-16       5.777228007380e-10       5.329515558608e-11      -9.919734129337e-16 
   15       1.978636200233e-10       1.482120720353e-15       8.262619628112e-14       1.032589733311e-15       5.163337775895e-10       4.814851480408e-11      -2.218652823763e-14 
   16       1.986005600823e-10       1.647881943358e-15       8.569812178765e-14       1.168740266395e-15       4.641454773774e-10       4.371720726445e-11      -3.331236348315e-14 
   17       1.994984846908e-10       1.833965345792e-15       8.811355092201e-14       1.309726403615e-15       4.193794443085e-10       3.976910871397e-11      -3.583091338759e-14 
   18       2.004601994087e-10       2.038057426328e-15       8.960674344498e-14       1.455209095322e-15       3.805270326250e-10       3.633565446284e-11      -3.220134372506e-14 
   19       2.015028480345e-10       2.264079737657e-15       9.034109389747e-14       1.604972155235e-15       3.469716631861e-10       3.337102776106e-11      -2.498871638993e-14 
   20       2.025978098956e-10       2.517312809827e-15       9.064347683987e-14       1.758776888627e-15       3.174207277389e-10       3.070529336771e-11      -1.731227343233e-14 
   21       2.037559726658e-10       2.799500832638e-15       9.076010859569e-14       1.916522778209e-15       2.914096170647e-10       2.832927698679e-11      -1.085466813175e-14 
   22       2.049458934515e-10       3.110522514310e-15       9.088885832696e-14       2.078224904627e-15       2.683151749220e-10       2.624521119604e-11      -6.761681087996e-15 
   23       2.061863015842e-10       3.449169874291e-15       9.101657077085e-14       2.243785030141e-15       2.478192933066e-10       2.441499316079e-11      -5.094337950433e-15 
   24       2.074706137555e-10       3.813642018940e-15       9.101218645999e-14       2.413096103806e-15       2.294476911168e-10       2.276174790776e-11      -5.392436027560e-15 
   25       2.087954123720e-10       4.203976975874e-15       9.067045237395e-14       2.585965761900e-15       2.129841149732e-10       2.124658771732e-11      -7.062353315701e-15 
   26       2.101325535987e-10       4.620658248881e-15       8.972324431478e-14       2.762181415343e-15       1.981306033051e-10       1.983480207517e-11      -9.331763556346e-15 
   27       2.114926265935e-10       5.064059365302e-15       8.792411458553e-14       2.941487132157e-15       1.847091957097e-10       1.854397825167e-11      -1.148200028977e-14 
   28       2.128792494037e-10       5.534535743473e-15       8.502972464949e-14       3.123625185288e-15       1.724887221419e-10       1.739559687380e-11      -1.283785653017e-14 
   29       2.143057972735e-10       6.032927625439e-15       8.091990548355e-14       3.308375895466e-15       1.614064314283e-10       1.637743655908e-11      -1.332177405399e-14 
   30       2.157643808757e-10       6.560248437685e-15       7.551093820572e-14       3.495544993673e-15       1.513427096370e-10       1.545188339414e-11      -1.308472293936e-14 
   31       2.172279159100e-10       7.117559816415e-15       6.874199834440e-14       3.684943301759e-15       1.420916664804e-10       1.457405043946e-11      -1.233412465910e-14 
   32       2.187076332822e-10       7.705984540059e-15       6.065398318252e-14       3.876331867088e-15       1.336055481268e-10       1.374585605192e-11      -1.126000552716e-14 
   33       2.202122994563e-10       8.326703216226e-15       5.134397447694e-14       4.069456642725e-15       1.258246143642e-10       1.298086228763e-11      -1.008975039985e-14 
   34       2.217368110875e-10       8.980838174098e-15       4.091395339849e-14       4.264067719964e-15       1.186402416832e-10       1.228724385933e-11      -9.065064201239e-15 
   35       2.232826752221e-10       9.669051963226e-15       2.935383546088e-14       4.459937462636e-15       1.120155794570e-10       1.165861016810e-11      -8.279973930464e-15 
   36       2.248413562984e-10       1.039179875036e-14       1.661791532666e-14       4.656849097234e-15       1.058972755863e-10       1.107894659791e-11      -7.787894337680e-15 
   37       2.263972097503e-10       1.114947703956e-14       2.657958633220e-15       4.854582004109e-15       1.002054899766e-10       1.053012544642e-11      -7.620429441701e-15 
   38       2.279622612535e-10       1.194262012796e-14      -1.256687772248e-14       5.052876415422e-15       9.492545332712e-11       1.001167402870e-11      -7.705944214341e-15 
   39       2.295508152169e-10       1.277175940539e-14      -2.909743189920e-14       5.251456685595e-15       9.004039605562e-11       9.526952560383e-12      -7.921640431568e-15 
   40       2.311689427442e-10       1.363736855563e-14      -4.697764372243e-14       5.450040077525e-15       8.550370439180e-11       9.077638479409e-12      -8.112618625227e-15 
   41       2.328160599270e-10       1.453990028553e-14      -6.625362346955e-14       5.648343818965e-15       8.125514812688e-11       8.663528356338e-12      -8.132897775256e-15 
   42       2.344925414050e-10       1.547991990598e-14      -8.696964539735e-14       5.846110280453e-15       7.728217447953e-11       8.282286586429e-12      -7.989648031990e-15 
   43       2.361930023677e-10       1.645800892495e-14      -1.091714438858e-13       6.043089121161e-15       7.357418635915e-11       7.929320455698e-12      -7.742330106089e-15 
   44       2.379032404256e-10       1.747472737275e-14      -1.329076447023e-13       6.239030423898e-15       7.010414935267e-11       7.597622934677e-12      -7.464424484282e-15 
   45       2.396073589702e-10       1.853054598234e-14      -1.582183919938e-13       6.433680435505e-15       6.683823621600e-11       7.279840466611e-12      -7.228301839666e-15 
   46       2.413134854508e-10       1.962562089426e-14      -1.850965596197e-13       6.626767265874e-15       6.377128131103e-11       6.975629365689e-12      -7.052457678893e-15 
   47       2.430344362557e-10       2.075994990667e-14      -2.135153875448e-13       6.818010916076e-15       6.089970044521e-11       6.686198507546e-12      -6.939934213576e-15 
   48       2.447801883742e-10       2.193342873704e-14      -2.434387107512e-13       7.007126930765e-15       5.821079865039e-11       6.412210005140e-12      -6.892845528959e-15 
   49       2.465575663148e-10       2.314584617965e-14      -2.748205502445e-13       7.193826154291e-15       5.568209281331e-11       6.153731986789e-12      -6.912299212015e-15 
   50       2.483702706581e-10       2.439693789812e-14      -3.076166110922e-13       7.377827506541e-15       5.328807760698e-11       5.910370458789e-12      -6.996491602623e-15 
   51       2.502196992063e-10       2.568657625090e-14      -3.418234047768e-13       7.558900964562e-15       5.102425987993e-11       5.681816644251e-12      -7.134565850271e-15 
   52       2.521038075437e-10       2.701462362130e-14      -3.774490391925e-13       7.736835826244e-15       4.888847725559e-11       5.467366587146e-12      -7.310951225641e-15 
   53       2.540164969218e-10       2.838087625216e-14      -4.145023874963e-13       7.911429070341e-15       4.687370568530e-11       5.265717178674e-12      -7.506883365700e-15 
   54       2.559473172545e-10       2.978506216274e-14      -4.529932394454e-13       8.082485725286e-15       4.496773235188e-11       5.074927362808e-12      -7.700239954647e-15 
   55       2.578857058635e-10       3.122686577661e-14      -4.929314461253e-13       8.249821187375e-15       4.315687631710e-11       4.892951847649e-12      -7.870966759393e-15 
   56       2.598356172177e-10       3.270601374229e-14      -5.343237586277e-13       8.413268004822e-15       4.143898218283e-11       4.719486375528e-12      -8.019310659007e-15 
   57       2.618040073066e-10       3.422220678344e-14      -5.771764691116e-13       8.572671425005e-15       3.981308139906e-11       4.554512906088e-12      -8.151828273494e-15 
   58       2.637964986387e-10       3.577509383597e-14      -6.214964582836e-13       8.727888027821e-15       3.827546162386e-11       4.397751142957e-12      -8.276244777190e-15 
   59       2.658172599535e-10       3.736427100549e-14      -6.672913075171e-13       8.878786170442e-15       3.681949733120e-11       4.248642044723e-12      -8.401507385732e-15 
   60       2.678688859335e-10       3.898928052490e-14      -7.145694109704e-13       9.025246432076e-15       3.543548041878e-11       4.106331335898e-12      -8.537838843034e-15 
   61       2.699530353115e-10       4.064959954542e-14      -7.633354898835e-13       9.167159588575e-15       3.411331305934e-11       3.969925206885e-12      -8.693714325732e-15 
   62       2.720727846912e-10       4.234460592820e-14      -8.135757052416e-13       9.304418998852e-15       3.285167579171e-11       3.839361785746e-12      -8.865878210103e-15 
   63       2.742305920183e-10       4.407360288945e-14      -8.652693872377e-13       9.436927290968e-15       3.165062608207e-11       3.714706907771e-12      -9.047171176878e-15 
   64       2.764274904888e-10       4.583582715133e-14      -9.183933051265e-13       9.564599040606e-15       3.050884065241e-11       3.595891490447e-12      -9.229365800864e-15 
   65       2.786629923243e-10       4.763044757690e-14      -9.729216334574e-13       9.687361137448e-15       2.942353690504e-11       3.482703680781e-12      -9.403122420283e-15 
   66       2.809349925477e-10       4.945656380506e-14      -1.028825918308e-12       9.805153151562e-15       2.839039434731e-11       3.374781002618e-12      -9.557945006114e-15 
   67       2.832396727584e-10       5.131320488553e-14      -1.086075043518e-12       9.917927699782e-15       2.740347601624e-11       3.271602503962e-12      -9.682137031418e-15 
   68       2.855732404907e-10       5.319933686857e-14      -1.144637974477e-12       1.002564203649e-14       2.645681187652e-11       3.172633178697e-12      -9.765596964886e-15 
   69       2.879377716394e-10       5.511389041131e-14      -1.204492710582e-12       1.012823002837e-14       2.554969721811e-11       3.077808766374e-12      -9.808961159628e-15 
   70       2.903363844408e-10       5.705573633870e-14      -1.265619094455e-12       1.022562513308e-14       2.468233163010e-11       2.987135530075e-12      -9.816242788040e-15 
   71       2.927714602393e-10       5.902367606796e-14      -1.327996231497e-12       1.031776881183e-14       2.385421659547e-11       2.900542786418e-12      -9.792184117090e-15 
   72       2.952445942086e-10       6.101644047255e-14      -1.391602527153e-12       1.040461067130e-14       2.306411942147e-11       2.817878947357e-12      -9.742285002308e-15 
   73       2.977565460735e-10       6.303268874620e-14      -1.456415724187e-12       1.048610860561e-14       2.231003716997e-11       2.738907561994e-12      -9.672831381787e-15 
   74       3.003071908307e-10       6.507100726684e-14      -1.522412939949e-12       1.056222893825e-14       2.158916058779e-11       2.663303358384e-12      -9.590923770176e-15 
   75       3.028954694703e-10       6.712990846057e-14      -1.589570703648e-12       1.063294656399e-14       2.089783803706e-11       2.590648285339e-12      -9.504505752679e-15 
   76       3.055202391932e-10       6.920787707343e-14      -1.657863927036e-12       1.069824482314e-14       2.023248064846e-11       2.520535041788e-12      -9.420670662026e-15 
   77       3.081831119885e-10       7.130352123903e-14      -1.727262517385e-12       1.075811478381e-14       1.959254807257e-11       2.452908210190e-12      -9.340162133595e-15 
   78       3.108860465599e-10       7.341544702290e-14      -1.797734211713e-12       1.081255608603e-14       1.897804419298e-11       2.387778428222e-12      -9.261917808585e-15 
   79       3.136304644156e-10       7.554221329737e-14      -1.869245603729e-12       1.086157733210e-14       1.838860770732e-11       2.325118694183e-12      -9.184695481195e-15 
   80       3.164172190340e-10       7.768233157768e-14      -1.941762159227e-12       1.090519622306e-14       1.782349535815e-11       2.264862612928e-12      -9.107066285368e-15 
   81       3.192465650305e-10       7.983426585810e-14      -2.015248231490e-12       1.094343969516e-14       1.728156516385e-11       2.206902641785e-12      -9.027407881535e-15 
   82       3.221181273233e-10       8.199643244805e-14      -2.089667076688e-12       1.097634405629e-14       1.676125964950e-11       2.151088336488e-12      -8.943897643359e-15 
   83       3.250308702999e-10       8.416719980820e-14      -2.164980869274e-12       1.100395512241e-14       1.626058907777e-11       2.097224597097e-12      -8.854505844477e-15 
   84       3.279837295895e-10       8.634489493818e-14      -2.241149905577e-12       1.102632345640e-14       1.577761422696e-11       2.045121356807e-12      -8.757576489858e-15 
   85       3.309776952598e-10       8.852782411547e-14      -2.318130029117e-12       1.104348887856e-14       1.531202341519e-11       1.994755955163e-12      -8.653695368682e-15 
   86       3.340140190438e-10       9.071425531009e-14      -2.395874804712e-12       1.105549362648e-14       1.486378738365e-11       1.946134592029e-12      -8.544120633165e-15 
   87       3.370935630315e-10       9.290241188567e-14      -2.474336294067e-12       1.106238707776e-14       1.443267474420e-11       1.899242401653e-12      -8.430225706321e-15 
   88       3.402167799723e-10       9.509047254572e-14      -2.553465057529e-12       1.106422580415e-14       1.401824360610e-11       1.854042563180e-12      -8.313502345091e-15 
   89       3.433836935776e-10       9.727657127979e-14      -2.633210155848e-12       1.106107362565e-14       1.361983320256e-11       1.810475411162e-12      -8.195563703467e-15 
   90       3.465938788232e-10       9.945879730973e-14      -2.713519151923e-12       1.105300166468e-14       1.323655551743e-11       1.768457546072e-12      -8.078147395611e-15 
   91       3.498464422517e-10       1.016351950359e-13      -2.794338112568e-12       1.104008840022e-14       1.286728691183e-11       1.727880944815e-12      -7.963118558983e-15 
   92       3.531400022751e-10       1.038037639835e-13      -2.875611610258e-12       1.102241972194e-14       1.251065975076e-11       1.688612071238e-12      -7.852472917462e-15 
   93       3.564732370557e-10       1.059625046217e-13      -2.957283853983e-12       1.100008506895e-14       1.216538631282e-11       1.650524406060e-12      -7.747933924505e-15 
   94       3.598466651933e-10       1.081095638224e-13      -3.039302272520e-12       1.097316506419e-14       1.183130443295e-11       1.613603565194e-12      -7.649668230684e-15 
   95       3.632610976808e-10       1.102431112809e-13      -3.121614475835e-12       1.094174211172e-14       1.150847437465e-11       1.577856420218e-12      -7.557381786839e-15 
   96       3.667170824418e-10       1.123612961602e-13      -3.204167191037e-12       1.090590414674e-14       1.119685679848e-11       1.543278662671e-12      -7.470706074852e-15 
   97       3.702148924236e-10       1.144622476669e-13      -3.286906279632e-12       1.086574463601e-14       1.089630894990e-11       1.509854373308e-12      -7.389195598772e-15 
   98       3.737545136912e-10       1.165440756273e-13      -3.369776754774e-12       1.082136257823e-14       1.060658084708e-11       1.477555591352e-12      -7.312325375938e-15 
   99       3.773356335206e-10       1.186048710631e-13      -3.452722798523e-12       1.077286250444e-14       1.032731146875e-11       1.446341883755e-12      -7.239488428114e-15 
  100       3.809576284922e-10       1.206427067673e-13      -3.535687779097e-12       1.072035447839e-14       1.005802494202e-11       1.416159914447e-12      -7.169993272607e-15 
  101       3.846195525848e-10       1.226556378803e-13      -3.618614268129e-12       1.066395409698e-14       9.798126730243e-12       1.386943013594e-12      -7.103061413400e-15 
  102       3.883201252682e-10       1.246417024659e-13      -3.701444057916e-12       1.060378249060e-14       9.546899820804e-12       1.358610746850e-12      -7.037824832276e-15 
  103       3.920577195977e-10       1.265989220866e-13      -3.784118178680e-12       1.053996632356e-14       9.303500912990e-12       1.331068484617e-12      -6.973323479945e-15 
  104       3.958307947671e-10       1.285253434534e-13      -3.866576803333e-12       1.047263307386e-14       9.067151244862e-12       1.304229279377e-12      -6.908699927335e-15 
  105       3.996392859604e-10       1.304191685389e-13      -3.948758909978e-12       1.040189614553e-14       8.837746642713e-12       1.278083791221e-12      -6.843818669546e-15 
  106       4.034833809262e-10       1.322786431958e-13      -4.030602605773e-12       1.032786773658e-14       8.615323157074e-12       1.252639049185e-12      -6.778726193031e-15 
  107       4.073630853450e-10       1.341020186683e-13      -4.112045251167e-12       1.025066332912e-14       8.399868129553e-12       1.227896803309e-12      -6.713460947911e-15 
