# Matter power spectrum P(k) at redshift z=0
# for k=1.34903e-05 to 122.493 h/Mpc,
# number of wavenumbers equal to 633
#    1:k (h/Mpc)              2:P (Mpc/h)^3        
       1.349032107464e-05       2.404441287656e+01 
       2.893858304596e-05       5.009813781926e+01 
       4.446858773101e-05       7.572793342390e+01 
       6.014051242664e-05       1.012342246636e+02 
       7.601600693514e-05       1.268025114088e+02 
       9.215898284574e-05       1.525803312294e+02 
       1.086364392710e-04       1.787000255057e+02 
       1.255193402231e-04       2.052885812852e+02 
       1.428835588494e-04       2.324731286045e+02 
       1.608109036338e-04       2.603846268161e+02 
       1.793902411794e-04       2.891607734108e+02 
       1.987187289549e-04       3.189485614720e+02 
       2.189031689336e-04       3.499067599292e+02 
       2.400614886635e-04       3.822083588316e+02 
       2.623243490264e-04       4.160431397968e+02 
       2.858368664848e-04       4.516203068989e+02 
       3.107604203231e-04       4.891712206790e+02 
       3.372744902609e-04       5.289521363782e+02 
       3.655784346225e-04       5.712468392366e+02 
       3.958930719081e-04       6.163689335808e+02 
       4.284618679319e-04       6.646635673906e+02 
       4.635514576644e-04       7.165080035989e+02 
       5.014511507682e-04       7.723106236291e+02 
       5.424709946701e-04       8.325075154765e+02 
       5.869379207658e-04       8.975559883699e+02 
       6.351895111829e-04       9.679241276828e+02 
       6.875650375373e-04       1.044075911107e+03 
       7.443936805322e-04       1.126451862258e+03 
       8.059802606600e-04       1.215445847051e+03 
       8.725893680340e-04       1.311379676733e+03 
       9.444293734650e-04       1.414478368959e+03 
       1.021638260686e-03       1.524849148042e+03 
       1.104273339977e-03       1.642467721635e+03 
       1.192306544219e-03       1.767174295523e+03 
       1.285626179920e-03       1.898680302767e+03 
       1.384044906191e-03       2.036584943266e+03 
       1.487312666281e-03       2.180398854911e+03 
       1.595132604100e-03       2.329571700512e+03 
       1.707177817289e-03       2.483519760212e+03 
       1.823107087477e-03       2.641613361076e+03 
       1.942578305237e-03       2.803294744625e+03 
       2.065258954248e-03       2.968020717479e+03 
       2.190833569981e-03       3.135274195741e+03 
       2.319008463492e-03       3.304580598096e+03 
       2.449514195895e-03       3.475509987202e+03 
       2.582106342743e-03       3.647676792517e+03 
       2.716565050961e-03       3.820738060370e+03 
       2.852693809686e-03       3.994390351192e+03 
       2.990317762056e-03       4.168366327805e+03 
       3.129281796405e-03       4.342431683471e+03 
       3.269448580958e-03       4.516380712468e+03 
       3.410696648240e-03       4.690033715533e+03 
       3.552918592763e-03       4.863233496657e+03 
       3.696019415632e-03       5.035842965571e+03 
       3.839915029605e-03       5.207742261612e+03 
       3.984530925278e-03       5.378826645834e+03 
       4.129800991268e-03       5.549005679328e+03 
       4.275666477074e-03       5.718198781629e+03 
       4.422075085262e-03       5.886336476736e+03 
       4.568980179170e-03       6.053358504594e+03 
       4.716340092701e-03       6.219212346390e+03 
       4.864117529644e-03       6.383850463450e+03 
       5.012279041082e-03       6.547234974482e+03 
       5.160794570683e-03       6.709328443159e+03 
       5.309637058803e-03       6.870102304497e+03 
       5.458782097516e-03       7.029530693437e+03 
       5.608207629671e-03       7.187589996869e+03 
       5.757893686012e-03       7.344261424232e+03 
       5.907822155224e-03       7.499527989621e+03 
       6.057976582449e-03       7.653377507870e+03 
       6.208341992476e-03       7.805804658883e+03 
       6.358904734298e-03       7.956787447960e+03 
       6.509652344235e-03       8.106324049175e+03 
       6.660573425180e-03       8.254405393766e+03 
       6.811657539887e-03       8.401029754081e+03 
       6.962895116492e-03       8.546194395413e+03 
       7.114277364722e-03       8.689901795108e+03 
       7.265796201454e-03       8.832143553396e+03 
       7.417444184458e-03       8.972924026248e+03 
       7.569214453330e-03       9.112248812906e+03 
       7.721100676739e-03       9.250091279436e+03 
       7.873097005244e-03       9.386473470646e+03 
       8.025198029009e-03       9.521396773266e+03 
       8.177398739866e-03       9.654928240177e+03 
       8.329694497207e-03       9.786963182952e+03 
       8.482080997281e-03       9.917530096508e+03 
       8.634554245522e-03       1.004661200577e+04 
       8.787110531549e-03       1.017421768001e+04 
       8.939746406575e-03       1.030047173491e+04 
       9.092458662945e-03       1.042529865637e+04 
       9.245244315588e-03       1.054870879649e+04 
       9.398100585177e-03       1.067069437776e+04 
       9.551024882816e-03       1.079128142222e+04 
       9.704014796116e-03       1.091046161865e+04 
       9.857068076492e-03       1.102824258828e+04 
       1.001018262758e-02       1.114464032504e+04 
       1.016335649467e-02       1.125965349997e+04 
       1.031658785501e-02       1.137328969116e+04 
       1.046987500898e-02       1.148555402219e+04 
       1.062321637197e-02       1.159645754846e+04 
       1.077661046692e-02       1.170602213324e+04 
       1.093005591753e-02       1.181423035841e+04 
       1.108355144194e-02       1.192110081453e+04 
       1.123709584700e-02       1.202664270361e+04 
       1.139068802293e-02       1.213086038021e+04 
       1.154432693844e-02       1.223376225726e+04 
       1.169801163623e-02       1.233535815831e+04 
       1.185174122879e-02       1.243565376786e+04 
       1.200551489461e-02       1.253465336980e+04 
       1.215933187459e-02       1.263236822688e+04 
       1.231319146879e-02       1.272881405881e+04 
       1.246709303341e-02       1.282398650827e+04 
       1.262103597792e-02       1.291789909999e+04 
       1.277501976254e-02       1.301056078213e+04 
       1.292904389582e-02       1.310197587728e+04 
       1.308310793238e-02       1.319215784952e+04 
       1.323721147088e-02       1.328111003750e+04 
       1.339135415211e-02       1.336883447405e+04 
       1.354553565721e-02       1.345535650905e+04 
       1.369975570604e-02       1.354066931813e+04 
       1.385401405564e-02       1.362478641479e+04 
       1.400831049886e-02       1.370771455671e+04 
       1.416264486305e-02       1.378946081222e+04 
       1.431701700881e-02       1.387003676606e+04 
       1.447142682894e-02       1.394944822609e+04 
       1.462587424735e-02       1.402769847253e+04 
       1.478035921814e-02       1.410479938100e+04 
       1.493488172473e-02       1.418076476940e+04 
       1.508944177901e-02       1.425558868286e+04 
       1.524403942062e-02       1.432929333168e+04 
       1.539867471627e-02       1.440188072812e+04 
       1.555334775909e-02       1.447335239915e+04 
       1.570805866806e-02       1.454372566066e+04 
       1.586280758748e-02       1.461299645903e+04 
       1.601759468652e-02       1.468120256081e+04 
       1.617242015872e-02       1.474831180755e+04 
       1.632728422169e-02       1.481435593170e+04 
       1.648218711666e-02       1.487933394448e+04 
       1.663712910825e-02       1.494326014876e+04 
       1.679211048413e-02       1.500614008920e+04 
       1.694713155480e-02       1.506797723719e+04 
       1.710219265339e-02       1.512878335242e+04 
       1.725729413546e-02       1.518855862298e+04 
       1.741243637886e-02       1.524732496463e+04 
       1.756761978360e-02       1.530508342971e+04 
       1.772284477178e-02       1.536183435122e+04 
       1.787811178747e-02       1.541759205185e+04 
       1.803342129671e-02       1.547236205427e+04 
       1.818877378749e-02       1.552615933594e+04 
       1.834416976974e-02       1.557897896383e+04 
       1.849960977536e-02       1.563083363782e+04 
       1.865509435825e-02       1.568174106779e+04 
       1.881062409444e-02       1.573168959558e+04 
       1.896619958211e-02       1.578070020003e+04 
       1.912182144176e-02       1.582877710203e+04 
       1.927749031631e-02       1.587592991751e+04 
       1.943320687126e-02       1.592216526678e+04 
       1.958897179486e-02       1.596747955201e+04 
       1.974478579831e-02       1.601188700821e+04 
       1.990064961596e-02       1.605541184711e+04 
       2.005656400553e-02       1.609803239469e+04 
       2.021252974837e-02       1.613977841015e+04 
       2.036854764971e-02       1.618065076986e+04 
       2.052461853897e-02       1.622065975232e+04 
       2.068074327000e-02       1.625979032716e+04 
       2.083692272147e-02       1.629808388347e+04 
       2.099315779714e-02       1.633552266773e+04 
       2.114944942626e-02       1.637212179106e+04 
       2.130579856390e-02       1.640789577025e+04 
       2.146220619138e-02       1.644283413482e+04 
       2.161867331664e-02       1.647695927481e+04 
       2.177520097467e-02       1.651027509929e+04 
       2.193179022796e-02       1.654279551755e+04 
       2.208844216697e-02       1.657450727104e+04 
       2.224515791058e-02       1.660541939210e+04 
       2.240193860660e-02       1.663556179763e+04 
       2.255878543230e-02       1.666493376017e+04 
       2.271569959492e-02       1.669353239561e+04 
       2.287268233225e-02       1.672136077908e+04 
       2.302973491316e-02       1.674844094662e+04 
       2.318685863824e-02       1.677478108242e+04 
       2.334405484042e-02       1.680035305260e+04 
       2.350132488554e-02       1.682520683312e+04 
       2.365867017307e-02       1.684933752428e+04 
       2.381609213677e-02       1.687274536816e+04 
       2.397359224538e-02       1.689544044850e+04 
       2.413117200334e-02       1.691741632120e+04 
       2.428883295156e-02       1.693871320438e+04 
       2.444657666816e-02       1.695928772381e+04 
       2.460440476928e-02       1.697918519035e+04 
       2.476231890991e-02       1.699840833898e+04 
       2.492032078470e-02       1.701695789135e+04 
       2.507841212885e-02       1.703482423085e+04 
       2.523659471902e-02       1.705205623380e+04 
       2.539487037423e-02       1.706861090996e+04 
       2.555324095682e-02       1.708451690140e+04 
       2.571170837345e-02       1.709978751978e+04 
       2.587027457609e-02       1.711442856640e+04 
       2.602894156305e-02       1.712842393053e+04 
       2.618771138010e-02       1.714180806209e+04 
       2.634658612155e-02       1.715457794558e+04 
       2.650556793137e-02       1.716672862846e+04 
       2.666465900441e-02       1.717828309501e+04 
       2.682386158758e-02       1.718923013925e+04 
       2.698317798111e-02       1.719959470832e+04 
       2.714261053984e-02       1.720937154846e+04 
       2.730216167453e-02       1.721856230671e+04 
       2.746183385325e-02       1.722718343323e+04 
       2.762162960276e-02       1.723523938593e+04 
       2.778155151000e-02       1.724274097067e+04 
       2.794160222356e-02       1.724965837021e+04 
       2.810178445521e-02       1.725604854873e+04 
       2.826210098155e-02       1.726189989761e+04 
       2.842255464558e-02       1.726719609067e+04 
       2.858314835846e-02       1.727197670610e+04 
       2.874388510119e-02       1.727623188725e+04 
       2.890476792647e-02       1.727993901598e+04 
       2.906579996053e-02       1.728317284024e+04 
       2.922698440505e-02       1.728587360394e+04 
       2.938832453915e-02       1.728806285666e+04 
       2.954982372143e-02       1.728978255621e+04 
       2.971148539206e-02       1.729097719926e+04 
       2.987331307501e-02       1.729170392207e+04 
       3.003531038023e-02       1.729195417954e+04 
       3.019748100603e-02       1.729171188294e+04 
       3.035982874147e-02       1.729101811026e+04 
       3.052235746880e-02       1.728984944931e+04 
       3.068507116611e-02       1.728822250666e+04 
       3.084797390986e-02       1.728613882497e+04 
       3.101106987774e-02       1.728361247960e+04 
       3.117436335143e-02       1.728065726665e+04 
       3.133785871953e-02       1.727721524676e+04 
       3.150156048064e-02       1.727337654483e+04 
       3.166547324645e-02       1.726910712884e+04 
       3.182960174500e-02       1.726440959639e+04 
       3.199395082405e-02       1.725928620370e+04 
       3.215852545455e-02       1.725375062589e+04 
       3.232333073424e-02       1.724781722237e+04 
       3.248837189138e-02       1.724147552201e+04 
       3.265365428862e-02       1.723472593100e+04 
       3.281918342702e-02       1.722759882256e+04 
       3.298496495019e-02       1.722006351230e+04 
       3.315100464860e-02       1.721217236911e+04 
       3.331730846404e-02       1.720386539862e+04 
       3.348388249426e-02       1.719520554552e+04 
       3.365073299779e-02       1.718617344408e+04 
       3.381786639892e-02       1.717675841867e+04 
       3.398528929289e-02       1.716699138679e+04 
       3.415300845124e-02       1.715686642667e+04 
       3.432103082746e-02       1.714639004570e+04 
       3.448936356277e-02       1.713555049723e+04 
       3.465801399213e-02       1.712436433719e+04 
       3.482698965058e-02       1.711285759604e+04 
       3.499629827973e-02       1.710101962526e+04 
       3.516594783456e-02       1.708882213609e+04 
       3.533594649053e-02       1.707630772663e+04 
       3.550630265087e-02       1.706345935664e+04 
       3.567702495433e-02       1.705028368960e+04 
       3.584812228312e-02       1.703682539528e+04 
       3.601960377123e-02       1.702302314439e+04 
       3.619147881316e-02       1.700891867028e+04 
       3.636375707291e-02       1.699449683276e+04 
       3.653644849345e-02       1.697977476728e+04 
       3.670956330659e-02       1.696474402367e+04 
       3.688311204322e-02       1.694941346488e+04 
       3.705710554412e-02       1.693380070429e+04 
       3.723155497110e-02       1.691791918466e+04 
       3.740647181883e-02       1.690172053931e+04 
       3.758186792701e-02       1.688525968562e+04 
       3.775775549325e-02       1.686847420734e+04 
       3.793414708652e-02       1.685145951674e+04 
       3.811105566114e-02       1.683415916662e+04 
       3.828849457154e-02       1.681657532090e+04 
       3.846647758770e-02       1.679875208411e+04 
       3.864501891127e-02       1.678062022669e+04 
       3.882413319256e-02       1.676223851655e+04 
       3.900383554831e-02       1.674359214787e+04 
       3.918414158036e-02       1.672468081797e+04 
       3.936506739528e-02       1.670554626817e+04 
       3.954662962493e-02       1.668613915664e+04 
       3.972884544815e-02       1.666646227220e+04 
       3.991173261352e-02       1.664655944585e+04 
       4.009530946331e-02       1.662639870902e+04 
       4.027959495871e-02       1.660597034450e+04 
       4.046460870642e-02       1.658532935245e+04 
       4.065037098665e-02       1.656442185025e+04 
       4.083690278262e-02       1.654329967323e+04 
       4.102422581174e-02       1.652191159525e+04 
       4.121236255851e-02       1.650028697562e+04 
       4.140133630921e-02       1.647844451374e+04 
       4.159117118868e-02       1.645635454540e+04 
       4.178189219911e-02       1.643402552622e+04 
       4.197352526114e-02       1.641147150352e+04 
       4.216609725736e-02       1.638869219762e+04 
       4.235963607843e-02       1.636566098216e+04 
       4.255417067194e-02       1.634240167090e+04 
       4.274973109431e-02       1.631892160578e+04 
       4.294634856577e-02       1.629520534746e+04 
       4.314405552896e-02       1.627125890494e+04 
       4.334288571104e-02       1.624708922707e+04 
       4.354287418993e-02       1.622264776687e+04 
       4.374405746478e-02       1.619803231279e+04 
       4.394647353102e-02       1.617317462538e+04 
       4.415016196051e-02       1.614805729862e+04 
       4.435516398698e-02       1.612270190119e+04 
       4.456152259739e-02       1.609714919107e+04 
       4.476928262955e-02       1.607134479050e+04 
       4.497849087661e-02       1.604529344972e+04 
       4.518919619894e-02       1.601903529754e+04 
       4.540144964414e-02       1.599251430304e+04 
       4.561530457574e-02       1.596575051137e+04 
       4.583081681147e-02       1.593874376323e+04 
       4.604804477193e-02       1.591151025983e+04 
       4.626704964059e-02       1.588403240751e+04 
       4.648789553613e-02       1.585625606603e+04 
       4.671064969839e-02       1.582826382975e+04 
       4.693538268906e-02       1.580001169345e+04 
       4.716216860871e-02       1.577149786740e+04 
       4.739108533157e-02       1.574271038572e+04 
       4.762221475999e-02       1.571367875320e+04 
       4.785564310044e-02       1.568430264932e+04 
       4.809146116339e-02       1.565473014138e+04 
       4.832976468937e-02       1.562480112562e+04 
       4.857065470421e-02       1.559463183702e+04 
       4.881423790642e-02       1.556413312905e+04 
       4.906062709036e-02       1.553332429771e+04 
       4.930994160902e-02       1.550222243178e+04 
       4.956230788118e-02       1.547079350650e+04 
       4.981785994777e-02       1.543902776666e+04 
       5.007674008341e-02       1.540693256078e+04 
       5.033909946970e-02       1.537448524827e+04 
       5.060509893771e-02       1.534165130887e+04 
       5.087490978841e-02       1.530845594613e+04 
       5.114871470075e-02       1.527488779689e+04 
       5.142670873886e-02       1.524089396447e+04 
       5.170910047138e-02       1.520652534592e+04 
       5.199611321793e-02       1.517171193350e+04 
       5.228798644031e-02       1.513644298274e+04 
       5.258497729855e-02       1.510072517236e+04 
       5.288736239550e-02       1.506449359998e+04 
       5.319543973763e-02       1.502775244524e+04 
       5.350953094410e-02       1.499051591904e+04 
       5.382998374228e-02       1.495271331535e+04 
       5.415717479447e-02       1.491430157915e+04 
       5.449151290873e-02       1.487526720593e+04 
       5.483344269681e-02       1.483560891493e+04 
       5.518344875419e-02       1.479526940137e+04 
       5.554206045188e-02       1.475421932651e+04 
       5.590985744781e-02       1.471239701099e+04 
       5.628747604765e-02       1.466977288921e+04 
       5.667561657234e-02       1.462627387213e+04 
       5.707505192353e-02       1.458186296526e+04 
       5.748663758038e-02       1.453644412380e+04 
       5.791132331371e-02       1.449000140687e+04 
       5.835016697020e-02       1.444240510236e+04 
       5.880435076231e-02       1.439358824879e+04 
       5.927520060549e-02       1.434350513122e+04 
       5.976420917793e-02       1.429194334722e+04 
       6.027306354873e-02       1.423881754575e+04 
       6.080367843706e-02       1.418404347036e+04 
       6.135823644208e-02       1.412738466848e+04 
       6.193923693520e-02       1.406866674406e+04 
       6.254955575303e-02       1.400766964042e+04 
       6.319251838944e-02       1.394417408888e+04 
       6.387199007820e-02       1.387784215885e+04 
       6.459248698748e-02       1.380835907781e+04 
       6.535931369248e-02       1.373526873535e+04 
       6.617873305361e-02       1.365810297004e+04 
       6.705817535761e-02       1.357624561675e+04 
       6.800649351754e-02       1.348895691130e+04 
       6.903426910734e-02       1.339534348207e+04 
       7.015416772606e-02       1.329426765225e+04 
       7.138132733986e-02       1.318436412782e+04 
       7.273373233993e-02       1.306388179593e+04 
       7.423246750758e-02       1.293064505717e+04 
       7.590164619494e-02       1.278199141093e+04 
       7.776766190658e-02       1.261467560053e+04 
       7.985726359336e-02       1.242495810689e+04 
       8.219395751472e-02       1.220879452255e+04 
       8.479270825151e-02       1.196249392531e+04 
       8.765413007086e-02       1.168364319458e+04 
