# dimensionless total [l(l+1)/2pi] C_l's
# for l=2 to 3000, i.e. number of multipoles equal to 2999
#
# -> if you prefer output in CAMB/HealPix/LensPix units/order, set 'format' to 'camb' in input file
# -> if you don't want to see such a header, set 'headers' to 'no' in input file
# -> for CMB lensing (phi), these are C_l^phi-phi for the lensing potential.
#    Remember the conversion factors:
#    C_l^dd (deflection) = l(l+1) C_l^phi-phi
#    C_l^gg (shear/convergence) = 1/4 (l(l+1))^2 C_l^phi-phi
#
# 1:l     2:TT                     3:EE                     4:TE                     5:BB                     6:phiphi                 7:TPhi                   8:Ephi               
    2       1.435551830583e-10       6.113152027152e-15       4.351050576995e-13       0.000000000000e+00       8.349155021293e-09       4.638332549197e-10      -2.267166452783e-12 
    3       1.354703751583e-10       9.517357270196e-15       5.272600072052e-13       0.000000000000e+00       5.211124598422e-09       3.309306355086e-10      -1.910518839554e-12 
    4       1.275819936289e-10       1.020681410527e-14       5.289390660613e-13       0.000000000000e+00       3.634407506301e-09       2.512821941021e-10      -1.446996385595e-12 
    5       1.214440145922e-10       8.630513929189e-15       4.817304618473e-13       0.000000000000e+00       2.714612932060e-09       1.989089144579e-10      -1.005424865612e-12 
    6       1.170088644916e-10       6.072818438852e-15       4.129504818107e-13       0.000000000000e+00       2.121148373373e-09       1.621358529669e-10      -6.273262302934e-13 
    7       1.139768051875e-10       3.704308457298e-15       3.404939557626e-13       0.000000000000e+00       1.710641115898e-09       1.350591620969e-10      -3.299236090360e-13 
    8       1.119893914321e-10       2.104153624215e-15       2.745909581789e-13       0.000000000000e+00       1.412625335958e-09       1.144110645792e-10      -1.160626200609e-13 
    9       1.108367087758e-10       1.288979113819e-15       2.205476907317e-13       0.000000000000e+00       1.188853538647e-09       9.827748742855e-11       2.054587815776e-14 
   10       1.103369498549e-10       9.811779069373e-16       1.803852412094e-13       0.000000000000e+00       1.016341629826e-09       8.544602653297e-11       9.218117562061e-14 
   11       1.103194977588e-10       8.796437938492e-16       1.540020205177e-13       0.000000000000e+00       8.550339741251e-10       7.525365201515e-11       1.139347474770e-13 
   12       1.106322358599e-10       8.047695015265e-16       1.398717410412e-13       0.000000000000e+00       7.469874743613e-10       6.668884418621e-11       1.032568876588e-13 
   13       1.112854597569e-10       7.097441509610e-16       1.354949620488e-13       0.000000000000e+00       6.583047116507e-10       5.930447735425e-11       7.366584160986e-14 
   14       1.121652224716e-10       6.198243039575e-16       1.379298647897e-13       0.000000000000e+00       5.845287766849e-10       5.325870999318e-11       3.786869063626e-14 
   15       1.132100987492e-10       5.679889254928e-16       1.445327849425e-13       0.000000000000e+00       5.224457364105e-10       4.820458117456e-11       4.351185970307e-15 
   16       1.144427776845e-10       5.633927891678e-16       1.531682159783e-13       0.000000000000e+00       4.696693842431e-10       4.372936622627e-11      -2.188425115313e-14 
   17       1.157880260612e-10       5.933723927240e-16       1.622148749200e-13       0.000000000000e+00       4.243992715110e-10       3.980101025998e-11      -3.839884478253e-14 
   18       1.172284668468e-10       6.391261032845e-16       1.707273964117e-13       0.000000000000e+00       3.851107791540e-10       3.637361978407e-11      -4.535088491478e-14 
   19       1.187865475101e-10       6.951619038768e-16       1.784490421086e-13       0.000000000000e+00       3.511822091499e-10       3.340940784736e-11      -4.434570141955e-14 
   20       1.204309066768e-10       7.609011301844e-16       1.853389794400e-13       0.000000000000e+00       3.213030149851e-10       3.080045581198e-11      -3.819213898955e-14 
   21       1.221534036779e-10       8.440687910172e-16       1.916760085541e-13       0.000000000000e+00       2.950030425841e-10       2.847786630350e-11      -2.931167627624e-14 
   22       1.239233567837e-10       9.548681615746e-16       1.978862841107e-13       0.000000000000e+00       2.716527203752e-10       2.635557737879e-11      -2.030699103349e-14 
   23       1.257470700837e-10       1.095726851287e-15       2.042599556354e-13       0.000000000000e+00       2.509303626111e-10       2.444750995249e-11      -1.267843111587e-14 
   24       1.276211587713e-10       1.265619718775e-15       2.110192873306e-13       0.000000000000e+00       2.323560476960e-10       2.277094939797e-11      -7.519100599939e-15 
   25       1.295451489961e-10       1.462372712765e-15       2.181777280600e-13       0.000000000000e+00       2.157106923084e-10       2.128676673304e-11      -5.040167138408e-15 
   26       1.315050976768e-10       1.683087883189e-15       2.256159129503e-13       0.000000000000e+00       2.006926042172e-10       1.992520391695e-11      -4.984291215287e-15 
   27       1.335021295236e-10       1.927170005266e-15       2.330527217075e-13       0.000000000000e+00       1.871221240870e-10       1.867074373644e-11      -6.668947672646e-15 
   28       1.355325642787e-10       2.194549645998e-15       2.401192459725e-13       0.000000000000e+00       1.747659489967e-10       1.751665041636e-11      -9.180693753342e-15 
   29       1.376038615831e-10       2.485347492509e-15       2.465440492924e-13       0.000000000000e+00       1.635606423756e-10       1.646353681512e-11      -1.192352768746e-14 
   30       1.397147443911e-10       2.799559916376e-15       2.520410295649e-13       0.000000000000e+00       1.533850706419e-10       1.550505494384e-11      -1.428382233842e-14 
   31       1.418535091527e-10       3.137208248144e-15       2.563133272056e-13       0.000000000000e+00       1.440308364197e-10       1.462645359846e-11      -1.564688037406e-14 
   32       1.440236315822e-10       3.499346304658e-15       2.592365649896e-13       0.000000000000e+00       1.354497076363e-10       1.382206957012e-11      -1.595844106875e-14 
   33       1.462251245242e-10       3.887440107532e-15       2.607438528636e-13       0.000000000000e+00       1.275814097223e-10       1.308267721709e-11      -1.537768781424e-14 
   34       1.484515872591e-10       4.303102265343e-15       2.607966184511e-13       0.000000000000e+00       1.203162152480e-10       1.239458981334e-11      -1.413299689359e-14 
   35       1.507077058738e-10       4.748028767024e-15       2.594440258036e-13       0.000000000000e+00       1.136168576129e-10       1.175531783865e-11      -1.250251134300e-14 
   36       1.529962133250e-10       5.224059175148e-15       2.567882251915e-13       0.000000000000e+00       1.074293237620e-10       1.116246988133e-11      -1.083670178935e-14 
   37       1.553146969174e-10       5.732932679724e-15       2.529388397810e-13       0.000000000000e+00       1.016728086215e-10       1.061102189453e-11      -9.487018751675e-15 
   38       1.576633663013e-10       6.275356850770e-15       2.479012098064e-13       0.000000000000e+00       9.633240864636e-11       1.009955860969e-11      -8.523981138675e-15 
   39       1.600386324206e-10       6.851623937097e-15       2.416527294341e-13       0.000000000000e+00       9.139122300682e-11       9.625545173071e-12      -7.927840681124e-15 
   40       1.624301952350e-10       7.461844476401e-15       2.341726706729e-13       0.000000000000e+00       8.680216724381e-11       9.183311470041e-12      -7.662384285980e-15 
   41       1.648264826005e-10       8.106101141490e-15       2.254284497528e-13       0.000000000000e+00       8.250437680583e-11       8.765996029359e-12      -7.671455421290e-15 
   42       1.672346589285e-10       8.784999965255e-15       2.153292515065e-13       0.000000000000e+00       7.848516967999e-11       8.372786013396e-12      -7.870323694912e-15 
   43       1.696660359317e-10       9.499277935938e-15       2.037571665995e-13       0.000000000000e+00       7.473382277771e-11       8.003580934442e-12      -8.149288095425e-15 
   44       1.721303186871e-10       1.024965156843e-14       1.905785341958e-13       0.000000000000e+00       7.122297599257e-11       7.656867991598e-12      -8.374156105674e-15 
   45       1.746342553053e-10       1.103676187193e-14       1.756715256105e-13       0.000000000000e+00       6.791839755524e-11       7.330415322391e-12      -8.420263575367e-15 
   46       1.771776519895e-10       1.186099161436e-14       1.590211265055e-13       0.000000000000e+00       6.481488192599e-11       7.023874789847e-12      -8.290101124679e-15 
   47       1.797557714600e-10       1.272259199739e-14       1.406508199895e-13       0.000000000000e+00       6.190883148546e-11       6.736758179748e-12      -8.028371319509e-15 
   48       1.823600585414e-10       1.362172824681e-14       1.205970641991e-13       0.000000000000e+00       5.918743099342e-11       6.467625851088e-12      -7.690131535827e-15 
   49       1.849778434605e-10       1.455847565096e-14       9.890992206265e-14       0.000000000000e+00       5.662796207233e-11       6.214016330148e-12      -7.341378078470e-15 
   50       1.875969848851e-10       1.553287612402e-14       7.563713472240e-14       0.000000000000e+00       5.420464602904e-11       5.973197693833e-12      -7.045393703537e-15 
   51       1.902219731636e-10       1.654513518660e-14       5.076978424143e-14       0.000000000000e+00       5.191295242071e-11       5.744825504118e-12      -6.816066237121e-15 
   52       1.928616852595e-10       1.759547160562e-14       2.428297023851e-14       0.000000000000e+00       4.975070381715e-11       5.528884638903e-12      -6.652908508465e-15 
   53       1.955247643231e-10       1.868406045584e-14      -3.849068678857e-15       0.000000000000e+00       4.771080077446e-11       5.324899578782e-12      -6.554103677857e-15 
   54       1.982195554472e-10       1.981103200655e-14      -3.365310427231e-14       0.000000000000e+00       4.578089059331e-11       5.131902673554e-12      -6.516419397947e-15 
   55       2.009528698615e-10       2.097644613259e-14      -6.515434855573e-14       0.000000000000e+00       4.394713379605e-11       4.948736895543e-12      -6.535144126222e-15 
   56       2.037260651849e-10       2.218021065343e-14      -9.836765360879e-14       0.000000000000e+00       4.220735810504e-11       4.775124871797e-12      -6.604074183762e-15 
   57       2.065378788954e-10       2.342214075779e-14      -1.333043872203e-13       0.000000000000e+00       4.056059199909e-11       4.610809838741e-12      -6.715373128414e-15 
   58       2.093854070809e-10       2.470197968007e-14      -1.699750032850e-13       0.000000000000e+00       3.900308543780e-11       4.455226128547e-12      -6.859466195827e-15 
   59       2.122639945501e-10       2.601939663357e-14      -2.083890852080e-13       0.000000000000e+00       3.752813827122e-11       4.307480467598e-12      -7.024955323808e-15 
   60       2.151671249431e-10       2.737398474353e-14      -2.485553893092e-13       0.000000000000e+00       3.612592864961e-11       4.166333274954e-12      -7.198534176672e-15 
   61       2.180885428020e-10       2.876528734653e-14      -2.904796051762e-13       0.000000000000e+00       3.478624000326e-11       4.030539730886e-12      -7.367970880207e-15 
   62       2.210294249923e-10       3.019288846267e-14      -3.341569510815e-13       0.000000000000e+00       3.350774544337e-11       3.900004751492e-12      -7.532030823270e-15 
   63       2.239926313092e-10       3.165633905552e-14      -3.795779859856e-13       0.000000000000e+00       3.229051233880e-11       3.774855254149e-12      -7.692640481024e-15 
   64       2.269805762647e-10       3.315512931415e-14      -4.267307174661e-13       0.000000000000e+00       3.113320959671e-11       3.655096121858e-12      -7.852028359365e-15 
   65       2.299951900171e-10       3.468868748629e-14      -4.756005726830e-13       0.000000000000e+00       3.003302804173e-11       3.540602916941e-12      -8.012737355405e-15 
   66       2.330378793000e-10       3.625637871144e-14      -5.261703693437e-13       0.000000000000e+00       2.898560079512e-11       3.431114594740e-12      -8.177637117967e-15 
   67       2.361094883515e-10       3.785750385410e-14      -5.784202866672e-13       0.000000000000e+00       2.798492365391e-11       3.326226217313e-12      -8.349936408071e-15 
   68       2.392105869687e-10       3.949129716143e-14      -6.323287894712e-13       0.000000000000e+00       2.702495828466e-11       3.225513032864e-12      -8.531955785110e-15 
   69       2.423424897830e-10       4.115692129355e-14      -6.878756827646e-13       0.000000000000e+00       2.610499700278e-11       3.128948196239e-12      -8.721129256299e-15 
   70       2.455063742770e-10       4.285346918545e-14      -7.450396267795e-13       0.000000000000e+00       2.522524699897e-11       3.036556989064e-12      -8.913210938645e-15 
   71       2.487029417800e-10       4.457996395792e-14      -8.037972340381e-13       0.000000000000e+00       2.438520777967e-11       2.948289086861e-12      -9.103424051774e-15 
   72       2.519323867633e-10       4.633535772065e-14      -8.641230646944e-13       0.000000000000e+00       2.358363458491e-11       2.864014632474e-12      -9.286441573191e-15 
   73       2.551943661358e-10       4.811853037532e-14      -9.259896218751e-13       0.000000000000e+00       2.281850180623e-11       2.783520309514e-12      -9.456366893550e-15 
   74       2.584879685399e-10       4.992828841867e-14      -9.893673470212e-13       0.000000000000e+00       2.208696640457e-11       2.706505415783e-12      -9.606714471915e-15 
   75       2.618116836468e-10       5.176336374566e-14      -1.054224615230e-12       0.000000000000e+00       2.138533132812e-11       2.632577936719e-12      -9.730390491025e-15 
   76       2.651640412384e-10       5.362243528696e-14      -1.120528200590e-12       0.000000000000e+00       2.070996304885e-11       2.561351815239e-12      -9.821139678793e-15 
   77       2.685457308683e-10       5.550420112272e-14      -1.188244780459e-12       0.000000000000e+00       2.006031820337e-11       2.492767918937e-12      -9.878233128856e-15 
   78       2.719578147433e-10       5.740731740567e-14      -1.257339698311e-12       0.000000000000e+00       1.943640497656e-11       2.426824740958e-12      -9.902604152856e-15 
   79       2.754010755327e-10       5.933037597642e-14      -1.327776522971e-12       0.000000000000e+00       1.883786120430e-11       2.363480574506e-12      -9.895468497789e-15 
   80       2.788759993985e-10       6.127190363477e-14      -1.399517053597e-12       0.000000000000e+00       1.826393735635e-11       2.302651661389e-12      -9.858335066202e-15 
   81       2.823827590257e-10       6.323036141109e-14      -1.472521324661e-12       0.000000000000e+00       1.771347951922e-11       2.244210340571e-12      -9.793016636379e-15 
   82       2.859211966519e-10       6.520414383760e-14      -1.546747610921e-12       0.000000000000e+00       1.718491237900e-11       2.187983196721e-12      -9.701640582534e-15 
   83       2.894908070981e-10       6.719157821976e-14      -1.622152432407e-12       0.000000000000e+00       1.667622220422e-11       2.133749208759e-12      -9.586659594999e-15 
   84       2.930910370042e-10       6.919097129356e-14      -1.698690311100e-12       0.000000000000e+00       1.618544621556e-11       2.081294104855e-12      -9.450843600434e-15 
   85       2.967222767067e-10       7.120075968081e-14      -1.776312983727e-12       0.000000000000e+00       1.571227118368e-11       2.030587836291e-12      -9.297230501118e-15 
   86       3.003850024444e-10       7.321938315611e-14      -1.854970066986e-12       0.000000000000e+00       1.525666987713e-11       1.981633267254e-12      -9.129186886243e-15 
   87       3.040794632888e-10       7.524523954535e-14      -1.934609295034e-12       0.000000000000e+00       1.481840985721e-11       1.934411690855e-12      -8.950436356682e-15 
   88       3.078056694889e-10       7.727668479335e-14      -2.015176520295e-12       0.000000000000e+00       1.439704497156e-11       1.888881922323e-12      -8.765069929216e-15 
   89       3.115633808157e-10       7.931203303170e-14      -2.096615714261e-12       0.000000000000e+00       1.399190684772e-11       1.844979392201e-12      -8.577556440756e-15 
   90       3.153520949065e-10       8.134955664642e-14      -2.178868968303e-12       0.000000000000e+00       1.360209638667e-11       1.802615239539e-12      -8.392752952569e-15 
   91       3.191710356095e-10       8.338748634573e-14      -2.261876494476e-12       0.000000000000e+00       1.322647525643e-11       1.761675405092e-12      -8.215915154501e-15 
   92       3.230191413285e-10       8.542401122779e-14      -2.345576626322e-12       0.000000000000e+00       1.286365738557e-11       1.722019724517e-12      -8.052707769205e-15 
   93       3.268953986855e-10       8.745730059742e-14      -2.429906906963e-12       0.000000000000e+00       1.251233776726e-11       1.683515943793e-12      -7.907937595236e-15 
   94       3.307999262298e-10       8.948557302247e-14      -2.514807538818e-12       0.000000000000e+00       1.217235391601e-11       1.646149587239e-12      -7.781512066855e-15 
   95       3.347330329276e-10       9.150703783710e-14      -2.600218456623e-12       0.000000000000e+00       1.184376906935e-11       1.609929013956e-12      -7.671889269423e-15 
   96       3.386948805435e-10       9.351987467958e-14      -2.686078301906e-12       0.000000000000e+00       1.152654527763e-11       1.574851546219e-12      -7.577294107064e-15 
   97       3.426854767255e-10       9.552223385864e-14      -2.772324438707e-12       0.000000000000e+00       1.122053952782e-11       1.540903042053e-12      -7.495711172766e-15 
   98       3.467046680892e-10       9.751223671967e-14      -2.858892969319e-12       0.000000000000e+00       1.092549986723e-11       1.508057467793e-12      -7.424877618477e-15 
   99       3.507521333029e-10       9.948797601107e-14      -2.945718750011e-12       0.000000000000e+00       1.064106152731e-11       1.476276470654e-12      -7.362276025203e-15 
  100       3.548273761719e-10       1.014475162505e-13      -3.032735406765e-12       0.000000000000e+00       1.036674304741e-11       1.445508951299e-12      -7.305127273105e-15 
  101       3.589297187235e-10       1.033888940912e-13      -3.119875351002e-12       0.000000000000e+00       1.010194239854e-11       1.415690636405e-12      -7.250383411600e-15 
  102       3.630582942912e-10       1.053101186883e-13      -3.207069795317e-12       0.000000000000e+00       9.845933107164e-12       1.386743651229e-12      -7.194720529456e-15 
  103       3.672120405997e-10       1.072091720648e-13      -3.294248769206e-12       0.000000000000e+00       9.597860378924e-12       1.358576092178e-12      -7.134531624891e-15 
  104       3.713899237277e-10       1.090840630426e-13      -3.381341945492e-12       0.000000000000e+00       9.356934866094e-12       1.331103761859e-12      -7.066728299857e-15 
  105       3.755916593468e-10       1.109329965417e-13      -3.468281212853e-12       0.000000000000e+00       9.123052128970e-12       1.304319638721e-12      -6.991284537187e-15 
  106       3.798170764727e-10       1.127542279398e-13      -3.554998481750e-12       0.000000000000e+00       8.896250017822e-12       1.278233038580e-12      -6.909024858173e-15 
  107       3.840658909619e-10       1.145460124938e-13      -3.641424929106e-12       0.000000000000e+00       8.676516818011e-12       1.252848108472e-12      -6.820847920869e-15 
