# Matter power spectrum P(k) at redshift z=0
# for k=1.03892e-05 to 104.924 h/Mpc,
# number of wavenumbers equal to 622
#    1:k (h/Mpc)              2:P (Mpc/h)^3        
       1.038922642939e-05       5.116733094644e+01 
       2.321812845909e-05       1.108985569820e+02 
       3.609173376214e-05       1.695113775379e+02 
       4.904439972694e-05       2.276639482177e+02 
       6.211104704304e-05       2.857258702864e+02 
       7.532746857735e-05       3.439712020209e+02 
       8.873064804491e-05       4.026324062111e+02 
       1.023590926816e-04       4.619223184804e+02 
       1.162531841578e-04       5.220453700647e+02 
       1.304555520066e-04       5.832043064179e+02 
       1.450114738457e-04       6.456048101512e+02 
       1.599693066204e-04       7.093810822973e+02 
       1.753809529236e-04       7.748953522048e+02 
       1.913023661048e-04       8.423169840798e+02 
       2.077940972509e-04       9.118944375991e+02 
       2.249218861033e-04       9.838934758796e+02 
       2.427572963948e-04       1.058599679006e+03 
       2.613783937365e-04       1.136320996158e+03 
       2.808704608154e-04       1.217390277536e+03 
       3.013267399410e-04       1.302167772443e+03 
       3.228491865615e-04       1.391043502710e+03 
       3.455492088575e-04       1.484439409947e+03 
       3.695483575494e-04       1.582811103837e+03 
       3.949789163640e-04       1.686649004032e+03 
       4.219843271948e-04       1.796478608819e+03 
       4.507193653101e-04       1.912859499190e+03 
       4.813499602484e-04       2.036382721328e+03 
       5.140525396193e-04       2.167666039682e+03 
       5.490127597170e-04       2.307346583719e+03 
       5.864234841228e-04       2.456070378578e+03 
       6.264818863381e-04       2.614478483860e+03 
       6.693855925968e-04       2.783189478240e+03 
       7.153278528513e-04       2.962778461568e+03 
       7.644918338936e-04       3.153753310852e+03 
       8.170442633386e-04       3.356529187721e+03 
       8.731288006756e-04       3.571403121670e+03 
       9.328596442615e-04       3.798530790063e+03 
       9.963159659542e-04       4.037907968184e+03 
       1.063537764581e-03       4.289358838295e+03 
       1.134523626239e-03       4.552533094134e+03 
       1.209230679194e-03       4.826912427414e+03 
       1.287576767919e-03       5.111826330583e+03 
       1.369444599257e-03       5.406460291604e+03 
       1.454687391959e-03       5.709903118512e+03 
       1.543135431684e-03       6.021210285199e+03 
       1.634602912099e-03       6.339375278425e+03 
       1.728894515478e-03       6.663381848464e+03 
       1.825811320550e-03       6.992228432643e+03 
       1.925155782887e-03       7.324947697067e+03 
       2.026735681319e-03       7.660621325085e+03 
       2.130367042364e-03       7.998390179592e+03 
       2.235876135455e-03       8.337461418617e+03 
       2.343100676636e-03       8.677109682510e+03 
       2.451890394377e-03       9.016678147782e+03 
       2.562107107073e-03       9.355576714254e+03 
       2.673624445823e-03       9.693278264703e+03 
       2.786327334635e-03       1.002931547717e+04 
       2.900111317649e-03       1.036327501374e+04 
       3.014881802039e-03       1.069479396333e+04 
       3.130553267074e-03       1.102355583934e+04 
       3.247048475047e-03       1.134928350873e+04 
       3.364297708069e-03       1.167173744473e+04 
       3.482238045923e-03       1.199071091327e+04 
       3.600812693636e-03       1.230602327175e+04 
       3.719970362791e-03       1.261752631851e+04 
       3.839664707406e-03       1.292508652100e+04 
       3.959853813072e-03       1.322859758100e+04 
       4.080499736700e-03       1.352796788332e+04 
       4.201568093487e-03       1.382311967083e+04 
       4.323027687306e-03       1.411399504530e+04 
       4.444850180647e-03       1.440054217359e+04 
       4.567009800288e-03       1.468272784085e+04 
       4.689483075068e-03       1.496051959376e+04 
       4.812248602367e-03       1.523390328677e+04 
       4.935286840186e-03       1.550287043218e+04 
       5.058579921982e-03       1.576741026937e+04 
       5.182111491712e-03       1.602753223390e+04 
       5.305866556801e-03       1.628323607507e+04 
       5.429831356981e-03       1.653454022106e+04 
       5.553993247203e-03       1.678146087647e+04 
       5.678340593006e-03       1.702401089235e+04 
       5.802862676925e-03       1.726221999120e+04 
       5.927549614681e-03       1.749612030644e+04 
       6.052392280055e-03       1.772575995315e+04 
       6.177382237450e-03       1.795110494475e+04 
       6.302511681309e-03       1.817220148199e+04 
       6.427773381594e-03       1.838911772324e+04 
       6.553160634691e-03       1.860185273558e+04 
       6.678667219122e-03       1.881033144868e+04 
       6.804287355565e-03       1.901483629145e+04 
       6.930015670697e-03       1.921528324737e+04 
       7.055847164479e-03       1.941171938315e+04 
       7.181777180500e-03       1.960417125647e+04 
       7.307801379070e-03       1.979267540229e+04 
       7.433915712780e-03       1.997729307866e+04 
       7.560116404275e-03       2.015804579600e+04 
       7.686399926014e-03       2.033497465042e+04 
       7.812762981824e-03       2.050812431905e+04 
       7.939202490069e-03       2.067753195550e+04 
       8.065715568266e-03       2.084323504779e+04 
       8.192299519032e-03       2.100527997455e+04 
       8.318951817208e-03       2.116369913488e+04 
       8.445670098061e-03       2.131853217068e+04 
       8.572452146473e-03       2.146981452399e+04 
       8.699295887004e-03       2.161760193242e+04 
       8.826199374762e-03       2.176192489183e+04 
       8.953160787016e-03       2.190281821327e+04 
       9.080178415458e-03       2.204031736552e+04 
       9.207250659091e-03       2.217448944042e+04 
       9.334376017655e-03       2.230533734926e+04 
       9.461553085571e-03       2.243291196297e+04 
       9.588780546346e-03       2.255725401904e+04 
       9.716057167395e-03       2.267839124423e+04 
       9.843381795261e-03       2.279638016854e+04 
       9.970753351188e-03       2.291124367015e+04 
       1.009817082702e-02       2.302300746426e+04 
       1.022563328138e-02       2.313173149516e+04 
       1.035313983621e-02       2.323742829949e+04 
       1.048068967341e-02       2.334014815550e+04 
       1.060828203188e-02       2.343993644548e+04 
       1.073591620467e-02       2.353680572667e+04 
       1.086359153639e-02       2.363079618428e+04 
       1.099130742072e-02       2.372193722877e+04 
       1.111906329821e-02       2.381029876780e+04 
       1.124685865418e-02       2.389585359804e+04 
       1.137469301670e-02       2.397867179996e+04 
       1.150256595483e-02       2.405879176372e+04 
       1.163047707693e-02       2.413622988522e+04 
       1.175842602905e-02       2.421102633161e+04 
       1.188641249350e-02       2.428321030864e+04 
       1.201443618746e-02       2.435281305000e+04 
       1.214249686173e-02       2.441987018681e+04 
       1.227059429957e-02       2.448441117639e+04 
       1.239872831558e-02       2.454645392615e+04 
       1.252689875467e-02       2.460604495560e+04 
       1.265510549116e-02       2.466320825737e+04 
       1.278334842789e-02       2.471798037964e+04 
       1.291162749538e-02       2.477037852107e+04 
       1.303994265110e-02       2.482044186401e+04 
       1.316829387881e-02       2.486820415346e+04 
       1.329668118784e-02       2.491368066580e+04 
       1.342510461258e-02       2.495688863984e+04 
       1.355356421189e-02       2.499789289218e+04 
       1.368206006859e-02       2.503670626328e+04 
       1.381059228906e-02       2.507334234338e+04 
       1.393916100277e-02       2.510785020188e+04 
       1.406776636193e-02       2.514023219454e+04 
       1.419640854111e-02       2.517053258726e+04 
       1.432508773700e-02       2.519876844611e+04 
       1.445380416806e-02       2.522498439626e+04 
       1.458255807434e-02       2.524919053231e+04 
       1.471134971720e-02       2.527142202448e+04 
       1.484017937920e-02       2.529168767667e+04 
       1.496904736387e-02       2.531003968291e+04 
       1.509795399561e-02       2.532649046143e+04 
       1.522689961960e-02       2.534105722487e+04 
       1.535588460168e-02       2.535377962435e+04 
       1.548490932832e-02       2.536467311424e+04 
       1.561397420656e-02       2.537376077121e+04 
       1.574307966400e-02       2.538109012006e+04 
       1.587222614882e-02       2.538664706886e+04 
       1.600141412980e-02       2.539047594150e+04 
       1.613064409636e-02       2.539259700783e+04 
       1.625991655862e-02       2.539304012555e+04 
       1.638923204749e-02       2.539181856062e+04 
       1.651859111480e-02       2.538897164619e+04 
       1.664799433338e-02       2.538452491174e+04 
       1.677744229721e-02       2.537847060609e+04 
       1.690693562161e-02       2.537088261489e+04 
       1.703647494338e-02       2.536170527883e+04 
       1.716606092099e-02       2.535102347459e+04 
       1.729569423481e-02       2.533884525077e+04 
       1.742537558732e-02       2.532518824380e+04 
       1.755510570338e-02       2.531008576776e+04 
       1.768488533045e-02       2.529354445344e+04 
       1.781471523888e-02       2.527558621574e+04 
       1.794459622222e-02       2.525625991458e+04 
       1.807452909752e-02       2.523552638979e+04 
       1.820451470563e-02       2.521346632041e+04 
       1.833455391158e-02       2.519009699802e+04 
       1.846464760492e-02       2.516539864117e+04 
       1.859479670009e-02       2.513943526125e+04 
       1.872500213684e-02       2.511220183003e+04 
       1.885526488061e-02       2.508371507091e+04 
       1.898558592297e-02       2.505399761690e+04 
       1.911596628205e-02       2.502309432907e+04 
       1.924640700304e-02       2.499098010392e+04 
       1.937690915863e-02       2.495772099699e+04 
       1.950747384953e-02       2.492329771525e+04 
       1.963810220498e-02       2.488776702893e+04 
       1.976879538328e-02       2.485112928820e+04 
       1.989955457238e-02       2.481339028304e+04 
       2.003038099040e-02       2.477456288917e+04 
       2.016127588626e-02       2.473474193565e+04 
       2.029224054028e-02       2.469385162511e+04 
       2.042327626483e-02       2.465191854973e+04 
       2.055438440499e-02       2.460903107170e+04 
       2.068556633919e-02       2.456515619560e+04 
       2.081682347996e-02       2.452033755262e+04 
       2.094815727463e-02       2.447451946805e+04 
       2.107956920606e-02       2.442783418489e+04 
       2.121106079346e-02       2.438023384442e+04 
       2.134263359312e-02       2.433170512135e+04 
       2.147428919931e-02       2.428233687716e+04 
       2.160602924503e-02       2.423208274721e+04 
       2.173785540298e-02       2.418101658236e+04 
       2.186976938640e-02       2.412910755045e+04 
       2.200177295002e-02       2.407635572608e+04 
       2.213386789099e-02       2.402290221285e+04 
       2.226605604995e-02       2.396864584225e+04 
       2.239833931192e-02       2.391359300430e+04 
       2.253071960749e-02       2.385782853177e+04 
       2.266319891380e-02       2.380135898709e+04 
       2.279577925570e-02       2.374416008880e+04 
       2.292846270690e-02       2.368622680397e+04 
       2.306125139117e-02       2.362767199393e+04 
       2.319414748354e-02       2.356837261858e+04 
       2.332715321158e-02       2.350848875811e+04 
       2.346027085672e-02       2.344795577590e+04 
       2.359350275556e-02       2.338680095384e+04 
       2.372685130130e-02       2.332503059145e+04 
       2.386031894513e-02       2.326265795259e+04 
       2.399390819777e-02       2.319970568533e+04 
       2.412762163093e-02       2.313626594152e+04 
       2.426146187892e-02       2.307221285107e+04 
       2.439543164029e-02       2.300762625769e+04 
       2.452953367946e-02       2.294249575566e+04 
       2.466377082853e-02       2.287687875304e+04 
       2.479814598899e-02       2.281075961720e+04 
       2.493266213362e-02       2.274419464836e+04 
       2.506732230841e-02       2.267714618490e+04 
       2.520212963448e-02       2.260960477299e+04 
       2.533708731018e-02       2.254163205300e+04 
       2.547219861317e-02       2.247320632302e+04 
       2.560746690259e-02       2.240438198413e+04 
       2.574289562134e-02       2.233517546460e+04 
       2.587848829840e-02       2.226555851742e+04 
       2.601424855124e-02       2.219557544065e+04 
       2.615018008833e-02       2.212515404970e+04 
       2.628628671169e-02       2.205441786175e+04 
       2.642257231958e-02       2.198334233960e+04 
       2.655904090928e-02       2.191191526023e+04 
       2.669569657994e-02       2.184012592742e+04 
       2.683254353554e-02       2.176813879447e+04 
       2.696958608796e-02       2.169571632317e+04 
       2.710682866019e-02       2.162305682693e+04 
       2.724427578962e-02       2.155011058075e+04 
       2.738193213142e-02       2.147689479731e+04 
       2.751980246214e-02       2.140341884671e+04 
       2.765789168337e-02       2.132966238408e+04 
       2.779620482556e-02       2.125573519265e+04 
       2.793474705194e-02       2.118149015549e+04 
       2.807352366270e-02       2.110705998997e+04 
       2.821254009921e-02       2.103237009384e+04 
       2.835180194844e-02       2.095753585876e+04 
       2.849131494763e-02       2.088248818987e+04 
       2.863108498899e-02       2.080727152180e+04 
       2.877111812472e-02       2.073181203793e+04 
       2.891142057220e-02       2.065617973696e+04 
       2.905199871931e-02       2.058046851302e+04 
       2.919285913007e-02       2.050457817982e+04 
       2.933400855045e-02       2.042851163353e+04 
       2.947545391441e-02       2.035231291066e+04 
       2.961720235026e-02       2.027601967024e+04 
       2.975926118717e-02       2.019953313225e+04 
       2.990163796208e-02       2.012304279929e+04 
       3.004434042682e-02       2.004638701729e+04 
       3.018737655555e-02       1.996964444244e+04 
       3.033075455253e-02       1.989277705013e+04 
       3.047448286026e-02       1.981584691724e+04 
       3.061857016788e-02       1.973885651592e+04 
       3.076302542009e-02       1.966175832831e+04 
       3.090785782629e-02       1.958462090119e+04 
       3.105307687032e-02       1.950744736537e+04 
       3.119869232049e-02       1.943016916284e+04 
       3.134471424015e-02       1.935288533707e+04 
       3.149115299874e-02       1.927552073431e+04 
       3.163801928332e-02       1.919818555637e+04 
       3.178532411072e-02       1.912079742307e+04 
       3.193307884016e-02       1.904330843062e+04 
       3.208129518661e-02       1.896592742704e+04 
       3.222998523465e-02       1.888850325431e+04 
       3.237916145315e-02       1.881099665545e+04 
       3.252883671060e-02       1.873348620170e+04 
       3.267902429119e-02       1.865602359588e+04 
       3.282973791180e-02       1.857855691817e+04 
       3.298099173971e-02       1.850113739413e+04 
       3.313280041138e-02       1.842371836434e+04 
       3.328517905210e-02       1.834621107384e+04 
       3.343814329670e-02       1.826885205250e+04 
       3.359170931139e-02       1.819147120364e+04 
       3.374589381675e-02       1.811413703089e+04 
       3.390071411198e-02       1.803681117368e+04 
       3.405618810047e-02       1.795955877682e+04 
       3.421233431678e-02       1.788228801124e+04 
       3.436917195518e-02       1.780506212940e+04 
       3.452672089976e-02       1.772793779104e+04 
       3.468500175632e-02       1.765083410514e+04 
       3.484403588603e-02       1.757376584291e+04 
       3.500384544118e-02       1.749677829258e+04 
       3.516445340293e-02       1.741980069789e+04 
       3.532588362145e-02       1.734291358457e+04 
       3.548816085839e-02       1.726604070822e+04 
       3.565131083206e-02       1.718927436148e+04 
       3.581536026535e-02       1.711257034662e+04 
       3.598033693675e-02       1.703584021830e+04 
       3.614626973450e-02       1.695928552289e+04 
       3.631318871440e-02       1.688273494545e+04 
       3.648112516130e-02       1.680618862663e+04 
       3.665011165467e-02       1.672977761948e+04 
       3.682018213864e-02       1.665337386123e+04 
       3.699137199672e-02       1.657704868742e+04 
       3.716371813175e-02       1.650084276572e+04 
       3.733725905139e-02       1.642465993030e+04 
       3.751203495968e-02       1.634855844798e+04 
       3.768808785517e-02       1.627239515156e+04 
       3.786546163621e-02       1.619640643835e+04 
       3.804420221400e-02       1.612044418983e+04 
       3.822435763412e-02       1.604455994616e+04 
       3.840597820729e-02       1.596869097498e+04 
       3.858911665021e-02       1.589293691114e+04 
       3.877382823744e-02       1.581711810332e+04 
       3.896017096531e-02       1.574143642468e+04 
       3.914820572912e-02       1.566571057958e+04 
       3.933799651479e-02       1.559009890152e+04 
       3.952961060649e-02       1.551448219622e+04 
       3.972311881184e-02       1.543891521776e+04 
       3.991859570646e-02       1.536333795500e+04 
       4.011611989981e-02       1.528779921828e+04 
       4.031577432478e-02       1.521226265829e+04 
       4.051764655330e-02       1.513679638062e+04 
       4.072182914103e-02       1.506122505553e+04 
       4.092842000427e-02       1.498576084987e+04 
       4.113752283270e-02       1.491023801362e+04 
       4.134924754215e-02       1.483462770218e+04 
       4.156371077200e-02       1.475905465340e+04 
       4.178103643268e-02       1.468343705184e+04 
       4.200135630908e-02       1.460779589801e+04 
       4.222481072715e-02       1.453208133566e+04 
       4.245154929133e-02       1.445630791025e+04 
       4.268173170212e-02       1.438046271739e+04 
       4.291552866429e-02       1.430453007983e+04 
       4.315312289772e-02       1.422841906075e+04 
       4.339471026507e-02       1.415225702442e+04 
       4.364050103247e-02       1.407600560219e+04 
       4.389072128218e-02       1.399955336729e+04 
       4.414561449944e-02       1.392296945315e+04 
       4.440544335924e-02       1.384617681234e+04 
       4.467049174356e-02       1.376916288969e+04 
       4.494106702499e-02       1.369195108856e+04 
       4.521750265889e-02       1.361459304190e+04 
       4.550016113459e-02       1.353682708426e+04 
       4.578943734550e-02       1.345883626564e+04 
       4.608576244959e-02       1.338049398577e+04 
       4.638960830630e-02       1.330181708930e+04 
       4.670149259324e-02       1.322272579244e+04 
       4.702198472785e-02       1.314323991391e+04 
       4.735171274612e-02       1.306331450240e+04 
       4.769137132355e-02       1.298279469956e+04 
       4.804173116565e-02       1.290178910594e+04 
       4.840365004720e-02       1.282013797861e+04 
       4.877808584554e-02       1.273783376467e+04 
       4.916611199626e-02       1.265479711651e+04 
       4.956893590514e-02       1.257091409573e+04 
       4.998792098422e-02       1.248611066534e+04 
       5.042461315084e-02       1.240031875362e+04 
       5.088077284597e-02       1.231339767294e+04 
       5.135841390588e-02       1.222526157823e+04 
       5.185985097268e-02       1.213571294421e+04 
       5.238775757251e-02       1.204455605031e+04 
       5.294523753989e-02       1.195170409759e+04 
       5.353591313136e-02       1.185664790519e+04 
       5.416403393891e-02       1.175927455176e+04 
       5.483461152136e-02       1.165916144202e+04 
       5.555358534914e-02       1.155582083964e+04 
       5.632802581481e-02       1.144863600192e+04 
       5.716637887099e-02       1.133683269148e+04 
       5.807875266862e-02       1.121934625594e+04 
       5.907723625763e-02       1.109487148743e+04 
       6.017621843407e-02       1.096161098424e+04 
       6.139263231738e-02       1.081718131938e+04 
