# dimensionless [l(l+1)/2pi] C_l's for scalar mode
# for l=2 to 3000, i.e. number of multipoles equal to 2999
#
# -> if you prefer output in CAMB/HealPix/LensPix units/order, set 'format' to 'camb' in input file
# -> if you don't want to see such a header, set 'headers' to 'no' in input file
# -> for CMB lensing (phi), these are C_l^phi-phi for the lensing potential.
#    Remember the conversion factors:
#    C_l^dd (deflection) = l(l+1) C_l^phi-phi
#    C_l^gg (shear/convergence) = 1/4 (l(l+1))^2 C_l^phi-phi
#
# 1:l     2:TT                     3:EE                     4:TE                     5:BB                     6:phiphi                 7:TPhi                   8:Ephi               
    2       1.434671153554e-10       5.103722334041e-15       3.937330262369e-13       0.000000000000e+00       8.346602066807e-09       4.689012949038e-10      -2.065870745661e-12 
    3       1.352817517648e-10       7.234633217988e-15       4.610000239748e-13       0.000000000000e+00       5.165007532982e-09       3.327993560744e-10      -1.652795156342e-12 
    4       1.274921825503e-10       7.020748440451e-15       4.474310974861e-13       0.000000000000e+00       3.593078292408e-09       2.520951468249e-10      -1.173013808873e-12 
    5       1.215559108260e-10       5.332884360296e-15       3.949748356253e-13       0.000000000000e+00       2.680368916286e-09       1.992019317585e-10      -7.451018543140e-13 
    6       1.173645267863e-10       3.370391855829e-15       3.289541811396e-13       0.000000000000e+00       2.092510358231e-09       1.621609640246e-10      -4.043802249160e-13 
    7       1.145736423234e-10       1.898891040315e-15       2.649985320202e-13       0.000000000000e+00       1.688057177990e-09       1.349506324946e-10      -1.595099664875e-13 
    8       1.127850681287e-10       1.090511690010e-15       2.111875426290e-13       0.000000000000e+00       1.395565807693e-09       1.142650402785e-10      -4.083487487890e-15 
    9       1.118097766122e-10       7.565853161067e-16       1.708044052378e-13       0.000000000000e+00       1.175689880580e-09       9.817128811138e-11       7.676411994684e-14 
   10       1.114662673818e-10       6.367846780972e-16       1.440769345471e-13       0.000000000000e+00       1.005432795965e-09       8.538758355803e-11       1.020266626359e-13 
   11       1.115309046843e-10       5.651075027806e-16       1.294500518327e-13       0.000000000000e+00       8.459705633632e-10       7.526695661152e-11       9.127970469338e-14 
   12       1.119770722559e-10       4.920482283200e-16       1.243576510023e-13       0.000000000000e+00       7.391249480823e-10       6.664039540257e-11       6.234220822323e-14 
   13       1.126932339996e-10       4.306736132071e-16       1.259544967797e-13       0.000000000000e+00       6.514250168522e-10       5.938071634194e-11       2.835124191499e-14 
   14       1.136221881651e-10       4.005100795488e-16       1.316493978977e-13       0.000000000000e+00       5.784567223809e-10       5.328935336117e-11      -1.485136719974e-15 
   15       1.147459101708e-10       4.041141329380e-16       1.393732503485e-13       0.000000000000e+00       5.170450053394e-10       4.814507273788e-11      -2.238581431527e-14 
   16       1.159893178407e-10       4.316333301544e-16       1.478006032446e-13       0.000000000000e+00       4.648361027461e-10       4.371860771098e-11      -3.324192710819e-14 
   17       1.174086393344e-10       4.736483489233e-16       1.561915269075e-13       0.000000000000e+00       4.200513759896e-10       3.977611117238e-11      -3.556836615118e-14 
   18       1.189142750298e-10       5.282116122104e-16       1.642108805276e-13       0.000000000000e+00       3.811808925518e-10       3.634713280212e-11      -3.184702689494e-14 
   19       1.205060637309e-10       5.993625068149e-16       1.719921557598e-13       0.000000000000e+00       3.476101351290e-10       3.338542109977e-11      -2.464254913018e-14 
   20       1.221746818413e-10       6.922400159724e-16       1.798139430558e-13       0.000000000000e+00       3.180442747072e-10       3.072123480846e-11      -1.705580357255e-14 
   21       1.239205206779e-10       8.087068811823e-16       1.878436386039e-13       0.000000000000e+00       2.920187209059e-10       2.834601862621e-11      -1.072881556795e-14 
   22       1.257176308983e-10       9.488301092078e-16       1.961898088809e-13       0.000000000000e+00       2.689107575690e-10       2.626280127029e-11      -6.754050294565e-15 
   23       1.275773249739e-10       1.111626503306e-15       2.048531625813e-13       0.000000000000e+00       2.484022466580e-10       2.443357967001e-11      -5.164052831166e-15 
   24       1.294991087048e-10       1.295472685122e-15       2.137354635002e-13       0.000000000000e+00       2.300185382819e-10       2.278130097088e-11      -5.482409055933e-15 
   25       1.314736716974e-10       1.500342634815e-15       2.225676676694e-13       0.000000000000e+00       2.135433897146e-10       2.126673539737e-11      -7.129620204671e-15 
   26       1.334761776347e-10       1.726563250640e-15       2.309891688522e-13       0.000000000000e+00       1.986788242613e-10       1.985491472570e-11      -9.359874659749e-15 
   27       1.355147274747e-10       1.974529664009e-15       2.387352441726e-13       0.000000000000e+00       1.852468550930e-10       1.856404616551e-11      -1.147117396736e-14 
   28       1.375968895614e-10       2.244685405217e-15       2.455648487544e-13       0.000000000000e+00       1.730161976748e-10       1.741642541337e-11      -1.280078214345e-14 
   29       1.397281981624e-10       2.538052149618e-15       2.513375176936e-13       0.000000000000e+00       1.619241415891e-10       1.639971715549e-11      -1.326840605992e-14 
   30       1.418999115113e-10       2.855871984071e-15       2.559401815905e-13       0.000000000000e+00       1.518510539194e-10       1.547581271729e-11      -1.301582984415e-14 
   31       1.440931238480e-10       3.199465004823e-15       2.592838757784e-13       0.000000000000e+00       1.425909343685e-10       1.459927630078e-11      -1.224256711225e-14 
   32       1.463138528907e-10       3.570245038790e-15       2.613991573262e-13       0.000000000000e+00       1.340960529477e-10       1.377178610658e-11      -1.114667241490e-14 
   33       1.485685423061e-10       3.969719588491e-15       2.623805346867e-13       0.000000000000e+00       1.263066652477e-10       1.300674014791e-11      -9.970579171438e-15 
   34       1.508558490786e-10       4.399341113457e-15       2.623255146401e-13       0.000000000000e+00       1.191140848931e-10       1.231222491273e-11      -8.968880405506e-15 
   35       1.531739994865e-10       4.859984494769e-15       2.611978509334e-13       0.000000000000e+00       1.124814732963e-10       1.168216454679e-11      -8.226737052885e-15 
   36       1.555141617297e-10       5.352277715981e-15       2.589166685562e-13       0.000000000000e+00       1.063554649379e-10       1.110105986036e-11      -7.779392953899e-15 
   37       1.578642334648e-10       5.876789790759e-15       2.553974475433e-13       0.000000000000e+00       1.006561703889e-10       1.055128964552e-11      -7.640322214253e-15 
   38       1.602320140156e-10       6.434234433516e-15       2.505720017731e-13       0.000000000000e+00       9.536884381553e-11       1.003242610929e-11      -7.735229686200e-15 
   39       1.626285855347e-10       7.025323998804e-15       2.443742107847e-13       0.000000000000e+00       9.047673032059e-11       9.547717757311e-12      -7.943693970899e-15 
   40       1.650615339909e-10       7.650709904837e-15       2.367342204417e-13       0.000000000000e+00       8.593318751166e-11       9.098691353660e-12      -8.114191780669e-15 
   41       1.675341937555e-10       8.311009436270e-15       2.275863394656e-13       0.000000000000e+00       8.167793488950e-11       8.684980710467e-12      -8.105363433243e-15 
   42       1.700441703261e-10       9.006906124209e-15       2.168966593281e-13       0.000000000000e+00       7.769843128828e-11       8.304173222322e-12      -7.930902864676e-15 
   43       1.725835772097e-10       9.739075407106e-15       2.046438383520e-13       0.000000000000e+00       7.398408963921e-11       7.951614263342e-12      -7.658377174510e-15 
   44       1.751388350571e-10       1.050815490993e-14       1.908118463341e-13       0.000000000000e+00       7.050785801610e-11       7.620222344893e-12      -7.370885529174e-15 
   45       1.776961185199e-10       1.131471750823e-14       1.753878934056e-13       0.000000000000e+00       6.723587919727e-11       7.302579815606e-12      -7.148831257833e-15 
   46       1.802607510885e-10       1.215918526431e-14       1.583549621101e-13       0.000000000000e+00       6.416300148373e-11       6.998367885520e-12      -7.006558190774e-15 
   47       1.828428055382e-10       1.304188662369e-14       1.396974152802e-13       0.000000000000e+00       6.128565482870e-11       6.708852953470e-12      -6.938345865428e-15 
   48       1.854515606002e-10       1.396307606859e-14       1.194031772458e-13       0.000000000000e+00       5.859114113634e-11       6.434766295322e-12      -6.935745933148e-15 
   49       1.880953697697e-10       1.492293082830e-14       9.746382096535e-14       0.000000000000e+00       5.605695544183e-11       6.176257472741e-12      -6.987404855353e-15 
   50       1.907802925364e-10       1.592156759076e-14       7.387066992613e-14       0.000000000000e+00       5.365756374019e-11       5.933001063253e-12      -7.080628481207e-15 
   51       1.935058544334e-10       1.695910561680e-14       4.860165430887e-14       0.000000000000e+00       5.138848024035e-11       5.704659095694e-12      -7.206987790489e-15 
   52       1.962679093286e-10       1.803561507133e-14       2.163103768995e-14       0.000000000000e+00       4.924755222762e-11       5.490463601832e-12      -7.357928285664e-15 
   53       1.990595914766e-10       1.915109622682e-14      -7.067007577511e-15       0.000000000000e+00       4.722775448289e-11       5.289035823909e-12      -7.523068029348e-15 
   54       2.018711260886e-10       2.030547711497e-14      -3.751850077240e-14       0.000000000000e+00       4.531686136378e-11       5.098346838525e-12      -7.690102311347e-15 
   55       2.046931085478e-10       2.149865382102e-14      -6.974706969472e-14       0.000000000000e+00       4.350117521311e-11       4.916274901428e-12      -7.847801304375e-15 
   56       2.075277299802e-10       2.273062846849e-14      -1.037652198553e-13       0.000000000000e+00       4.177854744450e-11       4.742529825639e-12      -7.996093475688e-15 
   57       2.103800085536e-10       2.400140139947e-14      -1.395810722393e-13       0.000000000000e+00       4.014801779833e-11       4.577137689808e-12      -8.138320128193e-15 
   58       2.132545120502e-10       2.531093086326e-14      -1.772008527438e-13       0.000000000000e+00       3.860587523806e-11       4.419870225506e-12      -8.278386504180e-15 
   59       2.161553035779e-10       2.665913232939e-14      -2.166288880342e-13       0.000000000000e+00       3.714548807009e-11       4.270228689980e-12      -8.420786958407e-15 
   60       2.190858872814e-10       2.804587780067e-14      -2.578676014002e-13       0.000000000000e+00       3.575713406363e-11       4.127427738901e-12      -8.570630131186e-15 
   61       2.220490478058e-10       2.947094490610e-14      -3.009163382265e-13       0.000000000000e+00       3.443069974252e-11       3.990635483876e-12      -8.731855541688e-15 
   62       2.250464493976e-10       3.093385238073e-14      -3.457675437076e-13       0.000000000000e+00       3.316487059041e-11       3.859793115451e-12      -8.901358640088e-15 
   63       2.280788500714e-10       3.243398627046e-14      -3.924097159220e-13       0.000000000000e+00       3.195971161843e-11       3.734951472458e-12      -9.073585729049e-15 
   64       2.311461433996e-10       3.397064465830e-14      -4.408284600482e-13       0.000000000000e+00       3.081390294041e-11       3.616023251136e-12      -9.242194605572e-15 
   65       2.342473008520e-10       3.554303538399e-14      -4.910064470846e-13       0.000000000000e+00       2.972466092943e-11       3.502775006433e-12      -9.400022349214e-15 
   66       2.373803141360e-10       3.715027376362e-14      -5.429233725707e-13       0.000000000000e+00       2.868765937438e-11       3.394819153301e-12      -9.539053110304e-15 
   67       2.405421375370e-10       3.879138030921e-14      -5.965559153074e-13       0.000000000000e+00       2.769695063646e-11       3.291605968005e-12      -9.650385898165e-15 
   68       2.437298194831e-10       4.046532980971e-14      -6.518792103845e-13       0.000000000000e+00       2.674655356107e-11       3.192574411188e-12      -9.726370758275e-15 
   69       2.469442923788e-10       4.217121521987e-14      -7.088717071301e-13       0.000000000000e+00       2.583576707801e-11       3.097657964313e-12      -9.767591936477e-15 
   70       2.501872506372e-10       4.390811303552e-14      -7.675112258761e-13       0.000000000000e+00       2.496479658571e-11       3.006867390726e-12      -9.777248322289e-15 
   71       2.534600026432e-10       4.567503392098e-14      -8.277735282415e-13       0.000000000000e+00       2.413314689345e-11       2.920137116481e-12      -9.759133085109e-15 
   72       2.567634435090e-10       4.747092174222e-14      -8.896323145815e-13       0.000000000000e+00       2.333958600596e-11       2.837321293582e-12      -9.717656919946e-15 
   73       2.600980278287e-10       4.929465260009e-14      -9.530592214377e-13       0.000000000000e+00       2.258210890792e-11       2.758189863224e-12      -9.657871293165e-15 
   74       2.634637424336e-10       5.114503386346e-14      -1.018023818987e-12       0.000000000000e+00       2.185790134856e-11       2.682424619024e-12      -9.585491688214e-15 
   75       2.668600791472e-10       5.302080320249e-14      -1.084493608493e-12       0.000000000000e+00       2.116330362620e-11       2.609615270269e-12      -9.506920851365e-15 
   76       2.702864669876e-10       5.492065115617e-14      -1.152434478050e-12       0.000000000000e+00       2.049471878303e-11       2.539360921346e-12      -9.427914142795e-15 
   77       2.737437199915e-10       5.684329572361e-14      -1.221812171405e-12       0.000000000000e+00       1.985160844368e-11       2.471604576462e-12      -9.349243225794e-15 
   78       2.772328051358e-10       5.878741968152e-14      -1.292591083596e-12       0.000000000000e+00       1.923398002427e-11       2.406352764577e-12      -9.270280189363e-15 
   79       2.807543887769e-10       6.075164778014e-14      -1.364733833151e-12       0.000000000000e+00       1.864147421008e-11       2.343573788224e-12      -9.190280767969e-15 
   80       2.843088188274e-10       6.273454625900e-14      -1.438201268939e-12       0.000000000000e+00       1.807334810606e-11       2.283195948393e-12      -9.108379742553e-15 
   81       2.878961069321e-10       6.473462236270e-14      -1.512952477010e-12       0.000000000000e+00       1.752845838722e-11       2.225105769419e-12      -9.023586341537e-15 
   82       2.915159106446e-10       6.675032385670e-14      -1.588944787453e-12       0.000000000000e+00       1.700524444911e-11       2.169146223856e-12      -8.934779641828e-15 
   83       2.951675156036e-10       6.878003854311e-14      -1.666133781233e-12       0.000000000000e+00       1.650171155829e-11       2.115114957370e-12      -8.840703969824e-15 
   84       2.988501845691e-10       7.082211345998e-14      -1.744472801796e-12       0.000000000000e+00       1.601591555098e-11       2.062816134112e-12      -8.740380879041e-15 
   85       3.025643100562e-10       7.287491719686e-14      -1.823911381828e-12       0.000000000000e+00       1.554754616143e-11       2.012229736511e-12      -8.634433628891e-15 
   86       3.063104209934e-10       7.493678707008e-14      -1.904396567026e-12       0.000000000000e+00       1.509657650345e-11       1.963367207709e-12      -8.523974865299e-15 
   87       3.100888213660e-10       7.700601020663e-14      -1.985873386706e-12       0.000000000000e+00       1.466277656380e-11       1.916219465432e-12      -8.410211933284e-15 
   88       3.138995785582e-10       7.908082339075e-14      -2.068284852323e-12       0.000000000000e+00       1.424570478200e-11       1.870756028054e-12      -8.294449279264e-15 
   89       3.177425116951e-10       8.115941291052e-14      -2.151571955998e-12       0.000000000000e+00       1.384469963018e-11       1.826924140668e-12      -8.178090853342e-15 
   90       3.216171799850e-10       8.323991440446e-14      -2.235673669039e-12       0.000000000000e+00       1.345887119287e-11       1.784647901154e-12      -8.062642511604e-15 
   91       3.255228710612e-10       8.532041270816e-14      -2.320526940468e-12       0.000000000000e+00       1.308709274691e-11       1.743827386247e-12      -7.949714418411e-15 
   92       3.294585893244e-10       8.739894170084e-14      -2.406066695543e-12       0.000000000000e+00       1.272799234120e-11       1.704337777602e-12      -7.841023448694e-15 
   93       3.334233701144e-10       8.947352964158e-14      -2.492227407756e-12       0.000000000000e+00       1.238027821462e-11       1.666059788746e-12      -7.738047719429e-15 
   94       3.374173015986e-10       9.154234331084e-14      -2.578948088481e-12       0.000000000000e+00       1.204378932438e-11       1.628978078868e-12      -7.640925530745e-15 
   95       3.414406357362e-10       9.360356536508e-14      -2.666168048531e-12       0.000000000000e+00       1.171858798431e-11       1.593096093528e-12      -7.549394496540e-15 
   96       3.454934690543e-10       9.565535124354e-14      -2.753825411407e-12       0.000000000000e+00       1.140463631875e-11       1.558405644297e-12      -7.463122318996e-15 
   97       3.495757354619e-10       9.769582963920e-14      -2.841857133417e-12       0.000000000000e+00       1.110179242487e-11       1.524886464492e-12      -7.381704415708e-15 
   98       3.536871990650e-10       9.972310296986e-14      -2.930199023797e-12       0.000000000000e+00       1.080980653505e-11       1.492505764900e-12      -7.304661546812e-15 
   99       3.578274469814e-10       1.017352478492e-13      -3.018785764841e-12       0.000000000000e+00       1.052831717930e-11       1.461217789516e-12      -7.231437442114e-15 
  100       3.619958821549e-10       1.037303155576e-13      -3.107550932014e-12       0.000000000000e+00       1.025684734758e-11       1.430963371266e-12      -7.161396428218e-15 
  101       3.661917161706e-10       1.057063325136e-13      -3.196427014083e-12       0.000000000000e+00       9.994800652184e-12       1.401669487739e-12      -7.093821055652e-15 
  102       3.704139620692e-10       1.076613007444e-13      -3.285345433234e-12       0.000000000000e+00       9.741457490131e-12       1.373248816920e-12      -7.027909725999e-15 
  103       3.746614271617e-10       1.095931983574e-13      -3.374236565200e-12       0.000000000000e+00       9.495971205521e-12       1.345599292916e-12      -6.962774319024e-15 
  104       3.789329657393e-10       1.115000256303e-13      -3.463030120578e-12       0.000000000000e+00       9.257559982062e-12       1.318627823540e-12      -6.897620129417e-15 
  105       3.832282915555e-10       1.133799493599e-13      -3.551656304134e-12       0.000000000000e+00       9.026120308226e-12       1.292326048795e-12      -6.832318470399e-15 
  106       3.875472622138e-10       1.152311789816e-13      -3.640044850345e-12       0.000000000000e+00       8.801689613642e-12       1.266704035653e-12      -6.766907356895e-15 
  107       3.918896247969e-10       1.170519236520e-13      -3.728124699993e-12       0.000000000000e+00       8.584256272741e-12       1.241766853474e-12      -6.701415738188e-15 
