# Matter power spectrum P(k) at redshift z=0
# for k=1.03892e-05 to 104.924 h/Mpc,
# number of wavenumbers equal to 622
#    1:k (h/Mpc)              2:P (Mpc/h)^3        
       1.038922642939e-05       5.116730799435e+01 
       2.321812845909e-05       1.108985049535e+02 
       3.609173376214e-05       1.695113111073e+02 
       4.904439972694e-05       2.276638575413e+02 
       6.211104704304e-05       2.857257562091e+02 
       7.532746857735e-05       3.439710638098e+02 
       8.873064804491e-05       4.026322439714e+02 
       1.023590926816e-04       4.619221325513e+02 
       1.162531841578e-04       5.220451589276e+02 
       1.304555520066e-04       5.832040712575e+02 
       1.450114738457e-04       6.456045489990e+02 
       1.599693066204e-04       7.094587695608e+02 
       1.753809529236e-04       7.749883996405e+02 
       1.913023661048e-04       8.424273159661e+02 
       2.077940972509e-04       9.120241919658e+02 
       2.249218861033e-04       9.840450205409e+02 
       2.427572963948e-04       1.058775668424e+03 
       2.613783937365e-04       1.136524406699e+03 
       2.808704608154e-04       1.217624463367e+03 
       3.013267399410e-04       1.302436524324e+03 
       3.228491865615e-04       1.391351125429e+03 
       3.455492088575e-04       1.484790795730e+03 
       3.695483575494e-04       1.583211841281e+03 
       3.949789163640e-04       1.687105477875e+03 
       4.219843271948e-04       1.796998132987e+03 
       4.507193653101e-04       1.913450465923e+03 
       4.813499602484e-04       2.037054771485e+03 
       5.140525396193e-04       2.168430245794e+03 
       5.490127597170e-04       2.308215666026e+03 
       5.864234841228e-04       2.457058935758e+03 
       6.264818863381e-04       2.615603239478e+03 
       6.693855925968e-04       2.784469532615e+03 
       7.153278528513e-04       2.964235581270e+03 
       7.644918338936e-04       3.155412147742e+03 
       8.170442633386e-04       3.358417520390e+03 
       8.731288006755e-04       3.573552050161e+03 
       9.328596442615e-04       3.800974858917e+03 
       9.963159659542e-04       4.040685199425e+03 
       1.063537764581e-03       4.292510713124e+03 
       1.134523626239e-03       4.556104376928e+03 
       1.209230679194e-03       4.830951034634e+03 
       1.287576767919e-03       5.116382867487e+03 
       1.369444599257e-03       5.411587813416e+03 
       1.454687391959e-03       5.715656621397e+03 
       1.543135431684e-03       6.027646378758e+03 
       1.634602912099e-03       6.346551759064e+03 
       1.728894515478e-03       6.671357382968e+03 
       1.825811320550e-03       7.001062175610e+03 
       1.925155782887e-03       7.334699121095e+03 
       2.026735681319e-03       7.671349946606e+03 
       2.130367042364e-03       8.010155526319e+03 
       2.235876135455e-03       8.350322803966e+03 
       2.343100676636e-03       8.691125969350e+03 
       2.451890394377e-03       9.031908125719e+03 
       2.562107107073e-03       9.372078594422e+03 
       2.673624445823e-03       9.711109471316e+03 
       2.786327334635e-03       1.004853253032e+04 
       2.900111317649e-03       1.038393346581e+04 
       3.014881802039e-03       1.071694918289e+04 
       3.130553267074e-03       1.104725980777e+04 
       3.247048475047e-03       1.137458873751e+04 
       3.364297708069e-03       1.169869293736e+04 
       3.482238045923e-03       1.201936514839e+04 
       3.600812693636e-03       1.233642360252e+04 
       3.719970362791e-03       1.264971714785e+04 
       3.839664707406e-03       1.295911172260e+04 
       3.959853813072e-03       1.326449801641e+04 
       4.080499736700e-03       1.356578468883e+04 
       4.201568093487e-03       1.386289228885e+04 
       4.323027687306e-03       1.415576235776e+04 
       4.444850180647e-03       1.444433970987e+04 
       4.567009800288e-03       1.472859345382e+04 
       4.689483075068e-03       1.500848894919e+04 
       4.812248602367e-03       1.528400945476e+04 
       4.935286840186e-03       1.555514746142e+04 
       5.058579921982e-03       1.582188843388e+04 
       5.182111491712e-03       1.608424320471e+04 
       5.305866556801e-03       1.634221090840e+04 
       5.429831356981e-03       1.659580510359e+04 
       5.553993247203e-03       1.684504278411e+04 
       5.678340593006e-03       1.708993570232e+04 
       5.802862676925e-03       1.733051198782e+04 
       5.927549614681e-03       1.756680249018e+04 
       6.052392280055e-03       1.779885436445e+04 
       6.177382237450e-03       1.802663053336e+04 
       6.302511681309e-03       1.825018150658e+04 
       6.427773381594e-03       1.846956906689e+04 
       6.553160634691e-03       1.868479459055e+04 
       6.678667219122e-03       1.889577995708e+04 
       6.804287355565e-03       1.910280860878e+04 
       6.930015670697e-03       1.930579509364e+04 
       7.055847164479e-03       1.950478566207e+04 
       7.181777180500e-03       1.969980595251e+04 
       7.307801379070e-03       1.989089361566e+04 
       7.433915712780e-03       2.007810393101e+04 
       7.560116404275e-03       2.026145943639e+04 
       7.686399926014e-03       2.044100453393e+04 
       7.812762981824e-03       2.061677863300e+04 
       7.939202490069e-03       2.078881934590e+04 
       8.065715568266e-03       2.095716280237e+04 
       8.192299519032e-03       2.112185444246e+04 
       8.318951817208e-03       2.128292646524e+04 
       8.445670098061e-03       2.144041766793e+04 
       8.572452146473e-03       2.159436791907e+04 
       8.699295887004e-03       2.174482159198e+04 
       8.826199374762e-03       2.189181070612e+04 
       8.953160787016e-03       2.203537654535e+04 
       9.080178415458e-03       2.217554988533e+04 
       9.207250659091e-03       2.231239745114e+04 
       9.334376017655e-03       2.244592179837e+04 
       9.461553085571e-03       2.257617484427e+04 
       9.588780546346e-03       2.270319203312e+04 
       9.716057167395e-03       2.282700829476e+04 
       9.843381795261e-03       2.294765930787e+04 
       9.970753351188e-03       2.306519613750e+04 
       1.009817082702e-02       2.317963165862e+04 
       1.022563328138e-02       2.329101581708e+04 
       1.035313983621e-02       2.339937838075e+04 
       1.048068967341e-02       2.350473464747e+04 
       1.060828203188e-02       2.360717109855e+04 
       1.073591620467e-02       2.370669748976e+04 
       1.086359153639e-02       2.380330501527e+04 
       1.099130742072e-02       2.389708680835e+04 
       1.111906329821e-02       2.398806633578e+04 
       1.124685865418e-02       2.407623141896e+04 
       1.137469301670e-02       2.416164628379e+04 
       1.150256595483e-02       2.424436998911e+04 
       1.163047707693e-02       2.432438554885e+04 
       1.175842602905e-02       2.440176942145e+04 
       1.188641249350e-02       2.447650944303e+04 
       1.201443618746e-02       2.454866498027e+04 
       1.214249686173e-02       2.461826019363e+04 
       1.227059429957e-02       2.468531414791e+04 
       1.239872831558e-02       2.474989559728e+04 
       1.252689875467e-02       2.481199143081e+04 
       1.265510549116e-02       2.487163856802e+04 
       1.278334842789e-02       2.492889191018e+04 
       1.291162749538e-02       2.498374904502e+04 
       1.303994265110e-02       2.503626847885e+04 
       1.316829387881e-02       2.508645365677e+04 
       1.329668118784e-02       2.513435420918e+04 
       1.342510461258e-02       2.517997142717e+04 
       1.355356421189e-02       2.522335974453e+04 
       1.368206006859e-02       2.526453697128e+04 
       1.381059228906e-02       2.530354005005e+04 
       1.393916100277e-02       2.534037922923e+04 
       1.406776636193e-02       2.537507587620e+04 
       1.419640854111e-02       2.540768931506e+04 
       1.432508773700e-02       2.543821747171e+04 
       1.445380416806e-02       2.546670415634e+04 
       1.458255807434e-02       2.549316573630e+04 
       1.471134971720e-02       2.551762153649e+04 
       1.484017937920e-02       2.554010486028e+04 
       1.496904736387e-02       2.556064773963e+04 
       1.509795399561e-02       2.557927344099e+04 
       1.522689961960e-02       2.559599337383e+04 
       1.535588460168e-02       2.561085298987e+04 
       1.548490932832e-02       2.562385942220e+04 
       1.561397420656e-02       2.563503731965e+04 
       1.574307966400e-02       2.564443472462e+04 
       1.587222614882e-02       2.565205265146e+04 
       1.600141412980e-02       2.565790976044e+04 
       1.613064409636e-02       2.566203541864e+04 
       1.625991655862e-02       2.566447263721e+04 
       1.638923204749e-02       2.566522219516e+04 
       1.651859111480e-02       2.566431422107e+04 
       1.664799433338e-02       2.566178875172e+04 
       1.677744229721e-02       2.565764165239e+04 
       1.690693562161e-02       2.565193950220e+04 
       1.703647494338e-02       2.564460630600e+04 
       1.716606092099e-02       2.563576887167e+04 
       1.729569423481e-02       2.562539998850e+04 
       1.742537558732e-02       2.561352172933e+04 
       1.755510570338e-02       2.560018781400e+04 
       1.768488533045e-02       2.558540281753e+04 
       1.781471523888e-02       2.556916778484e+04 
       1.794459622222e-02       2.555152893269e+04 
       1.807452909752e-02       2.553246642825e+04 
       1.820451470563e-02       2.551205170160e+04 
       1.833455391158e-02       2.549031236347e+04 
       1.846464760492e-02       2.546723335215e+04 
       1.859479670009e-02       2.544282175618e+04 
       1.872500213684e-02       2.541715818050e+04 
       1.885526488061e-02       2.539020027455e+04 
       1.898558592297e-02       2.536198755507e+04 
       1.911596628205e-02       2.533256394615e+04 
       1.924640700304e-02       2.530190433309e+04 
       1.937690915863e-02       2.527008567207e+04 
       1.950747384953e-02       2.523707641297e+04 
       1.963810220498e-02       2.520293636472e+04 
       1.976879538328e-02       2.516764949782e+04 
       1.989955457238e-02       2.513125181088e+04 
       2.003038099040e-02       2.509374453564e+04 
       2.016127588626e-02       2.505520065319e+04 
       2.029224054028e-02       2.501559075163e+04 
       2.042327626483e-02       2.497489590605e+04 
       2.055438440499e-02       2.493321378144e+04 
       2.068556633919e-02       2.489052447302e+04 
       2.081682347996e-02       2.484687302863e+04 
       2.094815727463e-02       2.480221039893e+04 
       2.107956920606e-02       2.475663209083e+04 
       2.121106079346e-02       2.471010641409e+04 
       2.134263359312e-02       2.466267730369e+04 
       2.147428919931e-02       2.461433926020e+04 
       2.160602924503e-02       2.456510990581e+04 
       2.173785540298e-02       2.451503977576e+04 
       2.186976938640e-02       2.446411898799e+04 
       2.200177295002e-02       2.441230027749e+04 
       2.213386789099e-02       2.435975913178e+04 
       2.226605604995e-02       2.430641119617e+04 
       2.239833931192e-02       2.425223070670e+04 
       2.253071960749e-02       2.419732833939e+04 
       2.266319891380e-02       2.414168051944e+04 
       2.279577925570e-02       2.408528016228e+04 
       2.292846270690e-02       2.402814318621e+04 
       2.306125139117e-02       2.397033060645e+04 
       2.319414748354e-02       2.391175379604e+04 
       2.332715321158e-02       2.385258552687e+04 
       2.346027085672e-02       2.379273649657e+04 
       2.359350275556e-02       2.373224163244e+04 
       2.372685130130e-02       2.367111369734e+04 
       2.386031894513e-02       2.360935666474e+04 
       2.399390819777e-02       2.354699903885e+04 
       2.412762163093e-02       2.348412412881e+04 
       2.426146187892e-02       2.342063404931e+04 
       2.439543164029e-02       2.335655863791e+04 
       2.452953367946e-02       2.329192439799e+04 
       2.466377082853e-02       2.322677823887e+04 
       2.479814598899e-02       2.316113073423e+04 
       2.493266213362e-02       2.309499493218e+04 
       2.506732230841e-02       2.302835625630e+04 
       2.520212963448e-02       2.296120652243e+04 
       2.533708731018e-02       2.289360837508e+04 
       2.547219861317e-02       2.282551715461e+04 
       2.560746690259e-02       2.275700745022e+04 
       2.574289562134e-02       2.268811966769e+04 
       2.587848829840e-02       2.261877513186e+04 
       2.601424855124e-02       2.254904958801e+04 
       2.615018008833e-02       2.247885752819e+04 
       2.628628671169e-02       2.240833475173e+04 
       2.642257231958e-02       2.233746117830e+04 
       2.655904090928e-02       2.226620103189e+04 
       2.669569657994e-02       2.219456721405e+04 
       2.683254353554e-02       2.212270825799e+04 
       2.696958608796e-02       2.205040052893e+04 
       2.710682866019e-02       2.197784183396e+04 
       2.724427578962e-02       2.190496432181e+04 
       2.738193213142e-02       2.183178927827e+04 
       2.751980246214e-02       2.175834038298e+04 
       2.765789168337e-02       2.168460620657e+04 
       2.779620482556e-02       2.161065576855e+04 
       2.793474705194e-02       2.153638640386e+04 
       2.807352366270e-02       2.146191022457e+04 
       2.821254009921e-02       2.138714593115e+04 
       2.835180194844e-02       2.131224219473e+04 
       2.849131494763e-02       2.123708323667e+04 
       2.863108498899e-02       2.116175011006e+04 
       2.877111812472e-02       2.108613242019e+04 
       2.891142057220e-02       2.101034983654e+04 
       2.905199871931e-02       2.093445145889e+04 
       2.919285913007e-02       2.085836600832e+04 
       2.933400855045e-02       2.078209058267e+04 
       2.947545391441e-02       2.070565405438e+04 
       2.961720235026e-02       2.062910323184e+04 
       2.975926118717e-02       2.055235413769e+04 
       2.990163796208e-02       2.047556690965e+04 
       3.004434042682e-02       2.039860903234e+04 
       3.018737655555e-02       2.032154893688e+04 
       3.033075455253e-02       2.024434007728e+04 
       3.047448286026e-02       2.016706480211e+04 
       3.061857016788e-02       2.008968745527e+04 
       3.076302542009e-02       2.001218878344e+04 
       3.090785782629e-02       1.993464428262e+04 
       3.105307687032e-02       1.985706101326e+04 
       3.119869232049e-02       1.977934435339e+04 
       3.134471424015e-02       1.970161323764e+04 
       3.149115299874e-02       1.962377381121e+04 
       3.163801928332e-02       1.954595650110e+04 
       3.178532411072e-02       1.946805928593e+04 
       3.193307884016e-02       1.939005045805e+04 
       3.208129518661e-02       1.931214009301e+04 
       3.222998523465e-02       1.923416665035e+04 
       3.237916145315e-02       1.915608847008e+04 
       3.252883671060e-02       1.907799509150e+04 
       3.267902429119e-02       1.899993664031e+04 
       3.282973791180e-02       1.892186866241e+04 
       3.298099173971e-02       1.884382675250e+04 
       3.313280041138e-02       1.876577166763e+04 
       3.328517905210e-02       1.868759781399e+04 
       3.343814329670e-02       1.860957346533e+04 
       3.359170931139e-02       1.853151449458e+04 
       3.374589381675e-02       1.845349138329e+04 
       3.390071411198e-02       1.837545017410e+04 
       3.405618810047e-02       1.829747307329e+04 
       3.421233431678e-02       1.821946376399e+04 
       3.436917195518e-02       1.814149073130e+04 
       3.452672089976e-02       1.806359112268e+04 
       3.468500175632e-02       1.798572538549e+04 
       3.484403588603e-02       1.790785706094e+04 
       3.500384544118e-02       1.783005533134e+04 
       3.516445340293e-02       1.775225432394e+04 
       3.532588362145e-02       1.767453869631e+04 
       3.548816085839e-02       1.759683142484e+04 
       3.565131083206e-02       1.751919574393e+04 
       3.581536026535e-02       1.744160902164e+04 
       3.598033693675e-02       1.736400054658e+04 
       3.614626973450e-02       1.728654832879e+04 
       3.631318871440e-02       1.720909047737e+04 
       3.648112516130e-02       1.713161318722e+04 
       3.665011165467e-02       1.705426799967e+04 
       3.682018213864e-02       1.697691645119e+04 
       3.699137199672e-02       1.689962917107e+04 
       3.716371813175e-02       1.682243878241e+04 
       3.733725905139e-02       1.674526465202e+04 
       3.751203495968e-02       1.666816744874e+04 
       3.768808785517e-02       1.659099088984e+04 
       3.786546163621e-02       1.651397149653e+04 
       3.804420221400e-02       1.643696560924e+04 
       3.822435763412e-02       1.636002762797e+04 
       3.840597820729e-02       1.628309704000e+04 
       3.858911665021e-02       1.620626928631e+04 
       3.877382823744e-02       1.612935422049e+04 
       3.896017096531e-02       1.605255865430e+04 
       3.914820572912e-02       1.597572019157e+04 
       3.933799651479e-02       1.589897455905e+04 
       3.952961060649e-02       1.582220924729e+04 
       3.972311881184e-02       1.574549310642e+04 
       3.991859570646e-02       1.566873177513e+04 
       4.011611989981e-02       1.559200942076e+04 
       4.031577432478e-02       1.551527126266e+04 
       4.051764655330e-02       1.543858788218e+04 
       4.072182914103e-02       1.536178176574e+04 
       4.092842000427e-02       1.528507263789e+04 
       4.113752283270e-02       1.520830242044e+04 
       4.134924754215e-02       1.513141352989e+04 
       4.156371077200e-02       1.505455333339e+04 
       4.178103643268e-02       1.497763901711e+04 
       4.200135630908e-02       1.490066294138e+04 
       4.222481072715e-02       1.482362392711e+04 
       4.245154929133e-02       1.474648775565e+04 
       4.268173170212e-02       1.466928452565e+04 
       4.291552866429e-02       1.459196142839e+04 
       4.315312289772e-02       1.451443634710e+04 
       4.339471026507e-02       1.443684210018e+04 
       4.364050103247e-02       1.435916392226e+04 
       4.389072128218e-02       1.428124561244e+04 
       4.414561449944e-02       1.420318595385e+04 
       4.440544335924e-02       1.412487689736e+04 
       4.467049174356e-02       1.404633655663e+04 
       4.494106702499e-02       1.396757699353e+04 
       4.521750265889e-02       1.388865364812e+04 
       4.550016113459e-02       1.380928694386e+04 
       4.578943734550e-02       1.372966763874e+04 
       4.608576244959e-02       1.364967866147e+04 
       4.638960830630e-02       1.356931758893e+04 
       4.670149259324e-02       1.348852037241e+04 
       4.702198472785e-02       1.340729558497e+04 
       4.735171274612e-02       1.332558336291e+04 
       4.769137132355e-02       1.324325534328e+04 
       4.804173116565e-02       1.316039958474e+04 
       4.840365004720e-02       1.307685957802e+04 
       4.877808584554e-02       1.299261749311e+04 
       4.916611199626e-02       1.290759845261e+04 
       4.956893590514e-02       1.282167804095e+04 
       4.998792098422e-02       1.273477343187e+04 
       5.042461315084e-02       1.264682851600e+04 
       5.088077284597e-02       1.255767727741e+04 
       5.135841390588e-02       1.246724530517e+04 
       5.185985097268e-02       1.237531268723e+04 
       5.238775757251e-02       1.228167973120e+04 
       5.294523753989e-02       1.218623654866e+04 
       5.353591313136e-02       1.208846687480e+04 
       5.416403393891e-02       1.198824527186e+04 
       5.483461152136e-02       1.188510966786e+04 
       5.555358534914e-02       1.177855294453e+04 
       5.632802581481e-02       1.166791987522e+04 
       5.716637887099e-02       1.155239430886e+04 
       5.807875266862e-02       1.143084036779e+04 
       5.907723625763e-02       1.130186946622e+04 
       6.017621843407e-02       1.116357017570e+04 
       6.139263231738e-02       1.101341330346e+04 
