# Matter power spectrum P(k) at redshift z=0
# for k=1.03549e-05 to 104.598 h/Mpc,
# number of wavenumbers equal to 622
#    1:k (h/Mpc)              2:P (Mpc/h)^3        
       1.035494839108e-05       5.166178990526e+01 
       2.315654277398e-05       1.120401663878e+02 
       3.600252388562e-05       1.712862901615e+02 
       4.892702916578e-05       2.300653182778e+02 
       6.196475311028e-05       2.887503832732e+02 
       7.515125284626e-05       3.476179206814e+02 
       8.852326335445e-05       4.069022452957e+02 
       1.021190264838e-04       4.668177726643e+02 
       1.159786379356e-04       5.275703446108e+02 
       1.301444164282e-04       5.893640190106e+02 
       1.446612992605e-04       6.524057195192e+02 
       1.595772684413e-04       7.169088149899e+02 
       1.749438113895e-04       7.830961372399e+02 
       1.908164198713e-04       8.512026999872e+02 
       2.072551302351e-04       9.214782949826e+02 
       2.243251070118e-04       9.941900191358e+02 
       2.420972704092e-04       1.069624823733e+03 
       2.606489659466e-04       1.148092053966e+03 
       2.800646711895e-04       1.229925991764e+03 
       3.004367299549e-04       1.315488368454e+03 
       3.218660981068e-04       1.405170742906e+03 
       3.444630767754e-04       1.499396675461e+03 
       3.683479981370e-04       1.598623496830e+03 
       3.936518155415e-04       1.703343493006e+03 
       4.205165337363e-04       1.814084211337e+03 
       4.490953966438e-04       1.931407555903e+03 
       4.795527307539e-04       2.055907249257e+03 
       5.120633239319e-04       2.188204208432e+03 
       5.468112059601e-04       2.328939327365e+03 
       5.839876937170e-04       2.478763206117e+03 
       6.237885773498e-04       2.638322447191e+03 
       6.664103616144e-04       2.808242321897e+03 
       7.120455452490e-04       2.989105965520e+03 
       7.608770234777e-04       3.181430700549e+03 
       8.130718298831e-04       3.385642528968e+03 
       8.687745788886e-04       3.602050580134e+03 
       9.281011026734e-04       3.830823560851e+03 
       9.911328624302e-04       4.071970686657e+03 
       1.057912720161e-03       4.325329305130e+03 
       1.128442563302e-03       4.590561252066e+03 
       1.202683083844e-03       4.867158531501e+03 
       1.280555757722e-03       5.154458445129e+03 
       1.361946801497e-03       5.451653006143e+03 
       1.446712659293e-03       5.757829283605e+03 
       1.534686437266e-03       6.072042554084e+03 
       1.625684672800e-03       6.393281530063e+03 
       1.719513890232e-03       6.720522555667e+03 
       1.815976523161e-03       7.052754602147e+03 
       1.914875937787e-03       7.388999354568e+03 
       2.016020439466e-03       7.728326645206e+03 
       2.119226264526e-03       8.069865060229e+03 
       2.224319642585e-03       8.412809032447e+03 
       2.331138062027e-03       8.756421363148e+03 
       2.439530889528e-03       9.100033663824e+03 
       2.549359492156e-03       9.443044743383e+03 
       2.660496995767e-03       9.784917469437e+03 
       2.772827792660e-03       1.012517533460e+04 
       2.886246889251e-03       1.046339321124e+04 
       3.000659163633e-03       1.079920392464e+04 
       3.115978584705e-03       1.113228093061e+04 
       3.232127429605e-03       1.146234166264e+04 
       3.349035524329e-03       1.178913826379e+04 
       3.466639523441e-03       1.211245927144e+04 
       3.584882238093e-03       1.243211982562e+04 
       3.703712016818e-03       1.274796489529e+04 
       3.823082180235e-03       1.305985885460e+04 
       3.942950508618e-03       1.336768958181e+04 
       4.063278779846e-03       1.367136287873e+04 
       4.184032354468e-03       1.397080121107e+04 
       4.305179804184e-03       1.426594160129e+04 
       4.426692579911e-03       1.455673165884e+04 
       4.548544715674e-03       1.484313606523e+04 
       4.670712564692e-03       1.512512254927e+04 
       4.793174564293e-03       1.540267217083e+04 
       4.915911026553e-03       1.567577747072e+04 
       5.038903951796e-03       1.594442629583e+04 
       5.162136862444e-03       1.620862498525e+04 
       5.285594654870e-03       1.646838100774e+04 
       5.409263467255e-03       1.672370096630e+04 
       5.533130561591e-03       1.697460549370e+04 
       5.657184218242e-03       1.722110624414e+04 
       5.781413641616e-03       1.746323056412e+04 
       5.905808875697e-03       1.770101126492e+04 
       6.030360728320e-03       1.793449708489e+04 
       6.155060703207e-03       1.816365099861e+04 
       6.279900938886e-03       1.838852109248e+04 
       6.404874153754e-03       1.860917519477e+04 
       6.529973596574e-03       1.882561152612e+04 
       6.655193001847e-03       1.903775568716e+04 
       6.780526549503e-03       1.924589056321e+04 
       6.905968828465e-03       1.944992945588e+04 
       7.031514803667e-03       1.964992188499e+04 
       7.157159786167e-03       1.984589600041e+04 
       7.282899406028e-03       2.003788675016e+04 
       7.408729587684e-03       2.022594931804e+04 
       7.534646527540e-03       2.041011638083e+04 
       7.660646673573e-03       2.059041539646e+04 
       7.786726706740e-03       2.076690544553e+04 
       7.912883524020e-03       2.093961665659e+04 
       8.039114222911e-03       2.110858169657e+04 
       8.165416087266e-03       2.127385243851e+04 
       8.291786574319e-03       2.143545451365e+04 
       8.418223302802e-03       2.159344489857e+04 
       8.544724042042e-03       2.174784915734e+04 
       8.671286701957e-03       2.189871685445e+04 
       8.797909323857e-03       2.204608090668e+04 
       8.924590071986e-03       2.218997664020e+04 
       9.051327225738e-03       2.233044496775e+04 
       9.178119172480e-03       2.246753702794e+04 
       9.304964400937e-03       2.260129420537e+04 
       9.431861495090e-03       2.273173084287e+04 
       9.558809128535e-03       2.285888794128e+04 
       9.685806059276e-03       2.298282563581e+04 
       9.812851124900e-03       2.310356312269e+04 
       9.939943238122e-03       2.322113491492e+04 
       1.006708138265e-02       2.333558858873e+04 
       1.019426460937e-02       2.344695059027e+04 
       1.032149203276e-02       2.355525924897e+04 
       1.044876282766e-02       2.366056015960e+04 
       1.057607622616e-02       2.376285445938e+04 
       1.070343151479e-02       2.386222906873e+04 
       1.083082803188e-02       2.395867357870e+04 
       1.095826516509e-02       2.405225216882e+04 
       1.108574234918e-02       2.414300520089e+04 
       1.121325906386e-02       2.423090276933e+04 
       1.134081483181e-02       2.431604212388e+04 
       1.146840921687e-02       2.439845370185e+04 
       1.159604182235e-02       2.447813378246e+04 
       1.172371228941e-02       2.455514579228e+04 
       1.185142029559e-02       2.462951191622e+04 
       1.197916555348e-02       2.470125447224e+04 
       1.210694780940e-02       2.477041190773e+04 
       1.223476684220e-02       2.483701629047e+04 
       1.236262246223e-02       2.490110840494e+04 
       1.249051451025e-02       2.496269575737e+04 
       1.261844285650e-02       2.502182188972e+04 
       1.274640739981e-02       2.507851550282e+04 
       1.287440806681e-02       2.513280793953e+04 
       1.300244481113e-02       2.518472877933e+04 
       1.313051761273e-02       2.523431343754e+04 
       1.325862647725e-02       2.528156954822e+04 
       1.338677143541e-02       2.532655174562e+04 
       1.351495254245e-02       2.536927271838e+04 
       1.364316987764e-02       2.540976064804e+04 
       1.377142354381e-02       2.544805458969e+04 
       1.389971366694e-02       2.548416813450e+04 
       1.402804039577e-02       2.551813241109e+04 
       1.415640390144e-02       2.554998953369e+04 
       1.428480437721e-02       2.557975237456e+04 
       1.441324203815e-02       2.560744119199e+04 
       1.454171712091e-02       2.563310023603e+04 
       1.467022988350e-02       2.565673448257e+04 
       1.479878060508e-02       2.567838521067e+04 
       1.492736958584e-02       2.569808622806e+04 
       1.505599714681e-02       2.571582586186e+04 
       1.518466362980e-02       2.573167235458e+04 
       1.531336939728e-02       2.574564156558e+04 
       1.544211483235e-02       2.575773909581e+04 
       1.557090033864e-02       2.576801909726e+04 
       1.569972634036e-02       2.577646988001e+04 
       1.582859328227e-02       2.578313006824e+04 
       1.595750162970e-02       2.578803768981e+04 
       1.608645186860e-02       2.579120772187e+04 
       1.621544450562e-02       2.579266947453e+04 
       1.634448006814e-02       2.579242691804e+04 
       1.647355910445e-02       2.579052524802e+04 
       1.660268218379e-02       2.578698036127e+04 
       1.673184989655e-02       2.578181128032e+04 
       1.686106285437e-02       2.577504466393e+04 
       1.699032169037e-02       2.576671307894e+04 
       1.711962705928e-02       2.575680411279e+04 
       1.724897963770e-02       2.574539499259e+04 
       1.737838012429e-02       2.573245855063e+04 
       1.750782924001e-02       2.571804742148e+04 
       1.763732772840e-02       2.570217590788e+04 
       1.776687635584e-02       2.568486607615e+04 
       1.789647591182e-02       2.566611053794e+04 
       1.802612720929e-02       2.564596344801e+04 
       1.815583108495e-02       2.562443903844e+04 
       1.828558839959e-02       2.560156213120e+04 
       1.841540003847e-02       2.557733835204e+04 
       1.854526691167e-02       2.555182563969e+04 
       1.867518995449e-02       2.552499932757e+04 
       1.880517012786e-02       2.549688678129e+04 
       1.893520841875e-02       2.546756210409e+04 
       1.906530584064e-02       2.543698447916e+04 
       1.919546343395e-02       2.540518831479e+04 
       1.932568226653e-02       2.537218933073e+04 
       1.945596343416e-02       2.533800059272e+04 
       1.958630806107e-02       2.530269408579e+04 
       1.971671730044e-02       2.526621584816e+04 
       1.984719233499e-02       2.522866967088e+04 
       1.997773437753e-02       2.518997811830e+04 
       2.010834467157e-02       2.515021914062e+04 
       2.023902449191e-02       2.510938786974e+04 
       2.036977514528e-02       2.506754905815e+04 
       2.050059797099e-02       2.502467794683e+04 
       2.063149434163e-02       2.498080068057e+04 
       2.076246566373e-02       2.493589857225e+04 
       2.089351337851e-02       2.489011572711e+04 
       2.102463896259e-02       2.484326913838e+04 
       2.115584392881e-02       2.479553067401e+04 
       2.128712982697e-02       2.474687774191e+04 
       2.141849824466e-02       2.469735958415e+04 
       2.154995080813e-02       2.464691068226e+04 
       2.168148918312e-02       2.459563842056e+04 
       2.181311507579e-02       2.454352615144e+04 
       2.194483023362e-02       2.449050422302e+04 
       2.207663644638e-02       2.443674875136e+04 
       2.220853554710e-02       2.438217490155e+04 
       2.234052941310e-02       2.432676704561e+04 
       2.247261996703e-02       2.427066098653e+04 
       2.260480917794e-02       2.421378917992e+04 
       2.273709906241e-02       2.415614222907e+04 
       2.286949168568e-02       2.409779485330e+04 
       2.300198916284e-02       2.403877547044e+04 
       2.313459366006e-02       2.397905840569e+04 
       2.326730739585e-02       2.391867627759e+04 
       2.340013264232e-02       2.385760612061e+04 
       2.353307172659e-02       2.379584187039e+04 
       2.366612703210e-02       2.373355995691e+04 
       2.379930100010e-02       2.367058770863e+04 
       2.393259613107e-02       2.360706879667e+04 
       2.406601498628e-02       2.354294020379e+04 
       2.419956018934e-02       2.347824299504e+04 
       2.433323442780e-02       2.341300326490e+04 
       2.446704045487e-02       2.334718880511e+04 
       2.460098109110e-02       2.328086634394e+04 
       2.473505922620e-02       2.321400598741e+04 
       2.486927782084e-02       2.314668956887e+04 
       2.500363990859e-02       2.307881773612e+04 
       2.513814859787e-02       2.301052829530e+04 
       2.527280707398e-02       2.294172565105e+04 
       2.540761860120e-02       2.287250371118e+04 
       2.554258652495e-02       2.280286817459e+04 
       2.567771427407e-02       2.273277535240e+04 
       2.581300536310e-02       2.266224226811e+04 
       2.594846339469e-02       2.259134583168e+04 
       2.608409206209e-02       2.252004136225e+04 
       2.621989515173e-02       2.244836680174e+04 
       2.635587654586e-02       2.237628726149e+04 
       2.649204022530e-02       2.230399645225e+04 
       2.662839027231e-02       2.223120472341e+04 
       2.676493087353e-02       2.215813466103e+04 
       2.690166632301e-02       2.208489755586e+04 
       2.703860102546e-02       2.201118104352e+04 
       2.717573949943e-02       2.193706587144e+04 
       2.731308638080e-02       2.186280019423e+04 
       2.745064642623e-02       2.178819381093e+04 
       2.758842451690e-02       2.171337655013e+04 
       2.772642566224e-02       2.163830935389e+04 
       2.786465500392e-02       2.156296885265e+04 
       2.800311781991e-02       2.148739495900e+04 
       2.814181952873e-02       2.141154319310e+04 
       2.828076569386e-02       2.133559414096e+04 
       2.841996202832e-02       2.125930631150e+04 
       2.855941439944e-02       2.118293239754e+04 
       2.869912883380e-02       2.110624243312e+04 
       2.883911152237e-02       2.102940557749e+04 
       2.897936882585e-02       2.095249952437e+04 
       2.911990728027e-02       2.087532379477e+04 
       2.926073360274e-02       2.079805734083e+04 
       2.940185469750e-02       2.072058286144e+04 
       2.954327766219e-02       2.064295839611e+04 
       2.968500979443e-02       2.056527051166e+04 
       2.982705859855e-02       2.048740526163e+04 
       2.996943179279e-02       2.040944214487e+04 
       3.011213731663e-02       2.033135510282e+04 
       3.025518333856e-02       2.025322377425e+04 
       3.039857826415e-02       2.017492903212e+04 
       3.054233074443e-02       2.009655775510e+04 
       3.068644968471e-02       2.001819284690e+04 
       3.083094425373e-02       1.993956996931e+04 
       3.097582389331e-02       1.986102747686e+04 
       3.112109832832e-02       1.978236881189e+04 
       3.126677757723e-02       1.970366571024e+04 
       3.141287196303e-02       1.962497233614e+04 
       3.155939212477e-02       1.954615781085e+04 
       3.170634902958e-02       1.946733023074e+04 
       3.185375398526e-02       1.938843866639e+04 
       3.200161865351e-02       1.930953172367e+04 
       3.214995506379e-02       1.923061966213e+04 
       3.229877562782e-02       1.915173193178e+04 
       3.244809315490e-02       1.907277596246e+04 
       3.259792086784e-02       1.899383887579e+04 
       3.274827241985e-02       1.891490813170e+04 
       3.289916191222e-02       1.883590185731e+04 
       3.305060391286e-02       1.875703342537e+04 
       3.320261347594e-02       1.867801844068e+04 
       3.335520616240e-02       1.859913738347e+04 
       3.350839806172e-02       1.852020583361e+04 
       3.366220581470e-02       1.844138992042e+04 
       3.381664663759e-02       1.836247421057e+04 
       3.397173834752e-02       1.828368178812e+04 
       3.412749938926e-02       1.820491099143e+04 
       3.428394886363e-02       1.812616276601e+04 
       3.444110655736e-02       1.804734285874e+04 
       3.459899297482e-02       1.796868795224e+04 
       3.475762937144e-02       1.789007309255e+04 
       3.491703778919e-02       1.781152198272e+04 
       3.507724109418e-02       1.773297077689e+04 
       3.523826301640e-02       1.765444309191e+04 
       3.540012819200e-02       1.757596856579e+04 
       3.556286220813e-02       1.749760788365e+04 
       3.572649165053e-02       1.741927784715e+04 
       3.589104415416e-02       1.734097438625e+04 
       3.605654845707e-02       1.726270699250e+04 
       3.622303445771e-02       1.718454841994e+04 
       3.639053327601e-02       1.710644233335e+04 
       3.655907731851e-02       1.702836899471e+04 
       3.672870034783e-02       1.695039108520e+04 
       3.689943755694e-02       1.687240088986e+04 
       3.707132564843e-02       1.679453368281e+04 
       3.724440291942e-02       1.671668118208e+04 
       3.741870935239e-02       1.663890036587e+04 
       3.759428671262e-02       1.656117288367e+04 
       3.777117865265e-02       1.648352031410e+04 
       3.794943082446e-02       1.640587370002e+04 
       3.812909100002e-02       1.632829790346e+04 
       3.831020920108e-02       1.625073200705e+04 
       3.849283783884e-02       1.617321602146e+04 
       3.867703186464e-02       1.609575057165e+04 
       3.886284893254e-02       1.601842195450e+04 
       3.905034957502e-02       1.594099905949e+04 
       3.923959739309e-02       1.586362264304e+04 
       3.943065926216e-02       1.578639026550e+04 
       3.962360555531e-02       1.570908758610e+04 
       3.981851038572e-02       1.563175855686e+04 
       4.001545187029e-02       1.555449004747e+04 
       4.021451241656e-02       1.547722254270e+04 
       4.041577903559e-02       1.540000125812e+04 
       4.061934368351e-02       1.532275453132e+04 
       4.082530363495e-02       1.524549801380e+04 
       4.103376189202e-02       1.516823580157e+04 
       4.124482763279e-02       1.509089007761e+04 
       4.145861670397e-02       1.501359959261e+04 
       4.167525216310e-02       1.493620539051e+04 
       4.189486487611e-02       1.485878863786e+04 
       4.211759417724e-02       1.478128273842e+04 
       4.234358859906e-02       1.470371073430e+04 
       4.257300668174e-02       1.462609581563e+04 
       4.280601787171e-02       1.454834562467e+04 
       4.304280352196e-02       1.447050737677e+04 
       4.328355800755e-02       1.439252464608e+04 
       4.352848997259e-02       1.431443052521e+04 
       4.377782372728e-02       1.423617781444e+04 
       4.403180081686e-02       1.415771510038e+04 
       4.429068178791e-02       1.407911446536e+04 
       4.455474818209e-02       1.400026989522e+04 
       4.482430479260e-02       1.392127243939e+04 
       4.509968222502e-02       1.384190906484e+04 
       4.538123981217e-02       1.376237399074e+04 
       4.566936894180e-02       1.368250155955e+04 
       4.596449686767e-02       1.360223480540e+04 
       4.626709108846e-02       1.352166547386e+04 
       4.657766439623e-02       1.344068316750e+04 
       4.689678071744e-02       1.335925235044e+04 
       4.722506189597e-02       1.327736402287e+04 
       4.756319560013e-02       1.319491280872e+04 
       4.791194457675e-02       1.311191840285e+04 
       4.827215752654e-02       1.302829207762e+04 
       4.864478193946e-02       1.294397982532e+04 
       4.903087931038e-02       1.285889630645e+04 
       4.943164325851e-02       1.277288934935e+04 
       4.984842120544e-02       1.268606291328e+04 
       5.028274043378e-02       1.259814385088e+04 
       5.073633956173e-02       1.250911654664e+04 
       5.121120674035e-02       1.241880396665e+04 
       5.170962622503e-02       1.232703574766e+04 
       5.223423540715e-02       1.223359561634e+04 
       5.278809493144e-02       1.213837655059e+04 
       5.337477517913e-02       1.204105734429e+04 
       5.399846315593e-02       1.194128596656e+04 
       5.466409463071e-02       1.183863621102e+04 
       5.537751706731e-02       1.173269263091e+04 
       5.614568911125e-02       1.162279451032e+04 
       5.697692135604e-02       1.150807635314e+04 
       5.788115925676e-02       1.138755782816e+04 
       5.887029941045e-02       1.125979276768e+04 
       5.995850967737e-02       1.112296025973e+04 
       6.116248320952e-02       1.097453233202e+04 
