# dimensionless [l(l+1)/2pi] C_l's for scalar mode
# for l=2 to 3000, i.e. number of multipoles equal to 2999
#
# -> if you prefer output in CAMB/HealPix/LensPix units/order, set 'format' to 'camb' in input file
# -> if you don't want to see such a header, set 'headers' to 'no' in input file
# -> for CMB lensing (phi), these are C_l^phi-phi for the lensing potential.
#    Remember the conversion factors:
#    C_l^dd (deflection) = l(l+1) C_l^phi-phi
#    C_l^gg (shear/convergence) = 1/4 (l(l+1))^2 C_l^phi-phi
#
# 1:l     2:TT                     3:EE                     4:TE                     5:BB                     6:phiphi                 7:TPhi                   8:Ephi               
    2       1.433842375586e-10       5.213018156367e-15       3.981586451273e-13       0.000000000000e+00       8.369861584650e-09       4.683808896825e-10      -2.088009626791e-12 
    3       1.352039033264e-10       7.403223140699e-15       4.663567459503e-13       0.000000000000e+00       5.168721831803e-09       3.324471792114e-10      -1.672548950882e-12 
    4       1.274066513081e-10       7.199376715963e-15       4.528865242346e-13       0.000000000000e+00       3.593639963217e-09       2.518801670506e-10      -1.188873011264e-12 
    5       1.214562026129e-10       5.480251568311e-15       3.999465752516e-13       0.000000000000e+00       2.680609174122e-09       1.990404152322e-10      -7.568766397991e-13 
    6       1.172506696670e-10       3.469898784537e-15       3.331347831372e-13       0.000000000000e+00       2.093311671103e-09       1.620401537530e-10      -4.123582901331e-13 
    7       1.144566787413e-10       1.955821424912e-15       2.682871672157e-13       0.000000000000e+00       1.689014835680e-09       1.348792607506e-10      -1.642289231221e-13 
    8       1.126648342907e-10       1.120253431778e-15       2.136022988493e-13       0.000000000000e+00       1.396339629732e-09       1.142183346065e-10      -6.228310983148e-15 
    9       1.116860154947e-10       7.736857438311e-16       1.724372626857e-13       0.000000000000e+00       1.176306482808e-09       9.811054660399e-11       7.644511950458e-14 
   10       1.113283398386e-10       6.497483587623e-16       1.450944534351e-13       0.000000000000e+00       1.005933173254e-09       8.531376951780e-11       1.028075655349e-13 
   11       1.113943627287e-10       5.766954217368e-16       1.300493924441e-13       0.000000000000e+00       8.463514491356e-10       7.521420923509e-11       9.253519199505e-14 
   12       1.118525869283e-10       5.021117652321e-16       1.247002386722e-13       0.000000000000e+00       7.394527357759e-10       6.659580226770e-11       6.357055922750e-14 
   13       1.125717808496e-10       4.387167392944e-16       1.261193091066e-13       0.000000000000e+00       6.517100884028e-10       5.937056319664e-11       2.930836058077e-14 
   14       1.134902223203e-10       4.067221630788e-16       1.317261106844e-13       0.000000000000e+00       5.787066319341e-10       5.324918889129e-11      -1.008803243619e-15 
   15       1.146128721659e-10       4.090614690546e-16       1.394633138924e-13       0.000000000000e+00       5.172647043841e-10       4.808831473419e-11      -2.239806810991e-14 
   16       1.158773844214e-10       4.356915504435e-16       1.478945117734e-13       0.000000000000e+00       4.650299308736e-10       4.367068829907e-11      -3.364418367432e-14 
   17       1.172788927224e-10       4.768377208212e-16       1.562319983454e-13       0.000000000000e+00       4.202239502388e-10       3.977923731649e-11      -3.613972544782e-14 
   18       1.187823622581e-10       5.303865603977e-16       1.641937480354e-13       0.000000000000e+00       3.813350990488e-10       3.636304779773e-11      -3.248247971619e-14 
   19       1.203885220085e-10       6.003701552609e-16       1.719103796148e-13       0.000000000000e+00       3.477483422153e-10       3.337911008156e-11      -2.527109572631e-14 
   20       1.220594240647e-10       6.919844061668e-16       1.796360564212e-13       0.000000000000e+00       3.181684055543e-10       3.070153135470e-11      -1.759697394438e-14 
   21       1.238037710423e-10       8.072946515688e-16       1.875572201884e-13       0.000000000000e+00       2.921304966622e-10       2.832899438560e-11      -1.111346322057e-14 
   22       1.256137249582e-10       9.465966785909e-16       1.958164105685e-13       0.000000000000e+00       2.690115767733e-10       2.625725290570e-11      -6.943107576358e-15 
   23       1.274893261419e-10       1.108857430321e-15       2.044218941095e-13       0.000000000000e+00       2.484933319448e-10       2.443503559724e-11      -5.178154869207e-15 
   24       1.294112559760e-10       1.292285113367e-15       2.132721553350e-13       0.000000000000e+00       2.301008885327e-10       2.277267394228e-11      -5.406997849655e-15 
   25       1.313763452660e-10       1.496714204142e-15       2.220891142088e-13       0.000000000000e+00       2.136180106397e-10       2.124220166212e-11      -7.043778341014e-15 
   26       1.333735458114e-10       1.722343368062e-15       2.305012982555e-13       0.000000000000e+00       1.987466931174e-10       1.982634072247e-11      -9.309365500757e-15 
   27       1.354129148541e-10       1.969555657313e-15       2.382437116885e-13       0.000000000000e+00       1.853087225523e-10       1.854200356349e-11      -1.147785679179e-14 
   28       1.375000973866e-10       2.238831906011e-15       2.450775773445e-13       0.000000000000e+00       1.730725025722e-10       1.740401292306e-11      -1.286408965733e-14 
   29       1.396389270338e-10       2.531268273698e-15       2.508603078505e-13       0.000000000000e+00       1.619753106822e-10       1.639645573446e-11      -1.337667365330e-14 
   30       1.418186160618e-10       2.848210576078e-15       2.554745677439e-13       0.000000000000e+00       1.518975656887e-10       1.547830559797e-11      -1.314848695449e-14 
   31       1.440181115920e-10       3.191057623573e-15       2.588263035766e-13       0.000000000000e+00       1.426332791990e-10       1.460155409644e-11      -1.237250770078e-14 
   32       1.462429243903e-10       3.561095475595e-15       2.609416337630e-13       0.000000000000e+00       1.341346787711e-10       1.376932832823e-11      -1.125672059819e-14 
   33       1.484995403227e-10       3.959606197002e-15       2.619102584004e-13       0.000000000000e+00       1.263419238912e-10       1.299827353711e-11      -1.006158939964e-14 
   34       1.507868479060e-10       4.387847216415e-15       2.618268129735e-13       0.000000000000e+00       1.191462123145e-10       1.229980484666e-11      -9.058037305756e-15 
   35       1.531037685295e-10       4.846824622682e-15       2.606636105687e-13       0.000000000000e+00       1.125106919828e-10       1.166834818220e-11      -8.323212569938e-15 
   36       1.554424789295e-10       5.337435473950e-15       2.583538564604e-13       0.000000000000e+00       1.063820028557e-10       1.108798271795e-11      -7.874514004517e-15 
   37       1.577918758931e-10       5.860505112914e-15       2.548257361202e-13       0.000000000000e+00       1.006802491821e-10       1.054053318282e-11      -7.709344370675e-15 
   38       1.601598250606e-10       6.416726079363e-15       2.500065466343e-13       0.000000000000e+00       9.539067697383e-11       1.002501734263e-11      -7.759457882521e-15 
   39       1.625571663546e-10       7.006689597620e-15       2.438189819224e-13       0.000000000000e+00       9.049651243931e-11       9.544021506828e-12      -7.919052325154e-15 
   40       1.649911765152e-10       7.630894171370e-15       2.361793582232e-13       0.000000000000e+00       8.595107931120e-11       9.098254318223e-12      -8.054625058244e-15 
   41       1.674649616891e-10       8.289804523676e-15       2.270097409519e-13       0.000000000000e+00       8.169405879591e-11       8.686580263497e-12      -8.040723660058e-15 
   42       1.699764926502e-10       8.984066050669e-15       2.162803178432e-13       0.000000000000e+00       7.771290578011e-11       8.306584422384e-12      -7.885612424604e-15 
   43       1.725184886415e-10       9.714349986916e-15       2.039799481889e-13       0.000000000000e+00       7.399703538300e-11       7.953875718484e-12      -7.643421475808e-15 
   44       1.750780845042e-10       1.048129287645e-14       1.901050538454e-13       0.000000000000e+00       7.051939289482e-11       7.621712320682e-12      -7.380822113320e-15 
   45       1.776420005494e-10       1.128548198348e-14       1.746546350469e-13       0.000000000000e+00       6.724611474560e-11       7.303025408586e-12      -7.163092816260e-15 
   46       1.802149934993e-10       1.212741007773e-14       1.576127103718e-13       0.000000000000e+00       6.417204502647e-11       6.997618140435e-12      -7.005586289117e-15 
   47       1.828061288909e-10       1.300750442165e-14       1.389612265709e-13       0.000000000000e+00       6.129360691291e-11       6.706825687078e-12      -6.909025894031e-15 
   48       1.854234862500e-10       1.392613631219e-14       1.186849834029e-13       0.000000000000e+00       5.859809098517e-11       6.431461243564e-12      -6.872833589731e-15 
   49       1.880740176250e-10       1.488361873921e-14       9.677167875433e-14       0.000000000000e+00       5.606297609697e-11       6.171770138153e-12      -6.895032680112e-15 
   50       1.907625882189e-10       1.588018565459e-14       7.320834421857e-14       0.000000000000e+00       5.366271137639e-11       5.927512617862e-12      -6.971648527717e-15 
   51       1.934891194900e-10       1.691592857834e-14       4.796940654329e-14       0.000000000000e+00       5.139280805301e-11       5.698345163576e-12      -7.094944545789e-15 
   52       1.962504260451e-10       1.799083873729e-14       2.102546358926e-14       0.000000000000e+00       4.925111316488e-11       5.483463353227e-12      -7.254539281150e-15 
   53       1.990407900788e-10       1.910482081952e-14      -7.653511141478e-15       0.000000000000e+00       4.723059974225e-11       5.281443340991e-12      -7.437748591147e-15 
   54       2.018517814177e-10       2.025768976732e-14      -3.809829324712e-14       0.000000000000e+00       4.531903878836e-11       5.090202021664e-12      -7.629464767045e-15 
   55       2.046752277166e-10       2.144923005036e-14      -7.033590169753e-14       0.000000000000e+00       4.350272868628e-11       4.907570831238e-12      -7.815471028123e-15 
   56       2.075134013673e-10       2.267939807509e-14      -1.043744851197e-13       0.000000000000e+00       4.177951979959e-11       4.733275332207e-12      -7.993626137743e-15 
   57       2.103710480304e-10       2.394816444090e-14      -1.402148994356e-13       0.000000000000e+00       4.014845091080e-11       4.567377624526e-12      -8.165246561157e-15 
   58       2.132524022261e-10       2.525545510955e-14      -1.778549549248e-13       0.000000000000e+00       3.860580903918e-11       4.409690214392e-12      -8.331927216676e-15 
   59       2.161611301128e-10       2.660115063246e-14      -2.172893605580e-13       0.000000000000e+00       3.714495950316e-11       4.259760086522e-12      -8.495554444672e-15 
   60       2.191002722636e-10       2.798508537803e-14      -2.585096683305e-13       0.000000000000e+00       3.575617598270e-11       4.116852776439e-12      -8.658318976586e-15 
   61       2.220721617557e-10       2.940701594851e-14      -3.015061035062e-13       0.000000000000e+00       3.442934075671e-11       3.980178938042e-12      -8.821762398767e-15 
   62       2.250782864042e-10       3.086651989454e-14      -3.462736613474e-13       0.000000000000e+00       3.316313812365e-11       3.849669507081e-12      -8.983637096405e-15 
   63       2.281192939220e-10       3.236307279136e-14      -3.928072863084e-13       0.000000000000e+00       3.195763237672e-11       3.725347059268e-12      -9.140361296426e-15 
   64       2.311949570240e-10       3.389607532748e-14      -4.411001109713e-13       0.000000000000e+00       3.081150241446e-11       3.607090598083e-12      -9.287906031119e-15 
   65       2.343041154208e-10       3.546485155436e-14      -4.911434602180e-13       0.000000000000e+00       2.972196287156e-11       3.494627321242e-12      -9.421777440671e-15 
   66       2.374446178134e-10       3.706864713613e-14      -5.429268554025e-13       0.000000000000e+00       2.868468524971e-11       3.387524387176e-12      -9.536999075688e-15 
   67       2.406132638872e-10       3.870662759932e-14      -5.964380185230e-13       0.000000000000e+00       2.769371904848e-11       3.285180681503e-12      -9.628094199732e-15 
   68       2.438069784407e-10       4.037788901749e-14      -6.516619299565e-13       0.000000000000e+00       2.674308033841e-11       3.186986393708e-12      -9.690420164860e-15 
   69       2.470267396945e-10       4.208149649168e-14      -7.085777706294e-13       0.000000000000e+00       2.583206755812e-11       3.092857698999e-12      -9.724525068045e-15 
   70       2.502743464142e-10       4.381645035869e-14      -7.671613648982e-13       0.000000000000e+00       2.496088610266e-11       3.002796123792e-12      -9.732646131537e-15 
   71       2.535512301862e-10       4.558167303936e-14      -8.273860524911e-13       0.000000000000e+00       2.412904061026e-11       2.916726450403e-12      -9.717452316953e-15 
   72       2.568584289241e-10       4.737600760632e-14      -8.892226684738e-13       0.000000000000e+00       2.333529873875e-11       2.834492775336e-12      -9.682061207682e-15 
   73       2.601965603755e-10       4.919821635175e-14      -9.526395232166e-13       0.000000000000e+00       2.257765494198e-11       2.755854567581e-12      -9.630055891288e-15 
   74       2.635657956287e-10       5.104697935509e-14      -1.017602382361e-12       0.000000000000e+00       2.185329424630e-11       2.680482726909e-12      -9.565501841903e-15 
   75       2.669658326194e-10       5.292089305079e-14      -1.084074446785e-12       0.000000000000e+00       2.115855602694e-11       2.607955642167e-12      -9.492963802637e-15 
   76       2.703962900757e-10       5.481853014300e-14      -1.152017651088e-12       0.000000000000e+00       2.048984236449e-11       2.537865023008e-12      -9.416629307170e-15 
   77       2.738580308535e-10       5.673863512932e-14      -1.221396876692e-12       0.000000000000e+00       1.984661442025e-11       2.470164388691e-12      -9.337457403792e-15 
   78       2.773520329060e-10       5.867996199530e-14      -1.292176474190e-12       0.000000000000e+00       1.922887919208e-11       2.404877261863e-12      -9.255538243693e-15 
   79       2.808789726702e-10       6.064121585903e-14      -1.364319019879e-12       0.000000000000e+00       1.863627682642e-11       2.341991369404e-12      -9.170938902042e-15 
   80       2.844392071958e-10       6.262105279686e-14      -1.437785322764e-12       0.000000000000e+00       1.806806376418e-11       2.281456951723e-12      -9.083701941305e-15 
   81       2.880327562725e-10       6.461807966909e-14      -1.512534431557e-12       0.000000000000e+00       1.752309588650e-11       2.223185072040e-12      -8.993843974555e-15 
   82       2.916592845585e-10       6.663085394571e-14      -1.588523641691e-12       0.000000000000e+00       1.699981166054e-11       2.167045925677e-12      -8.901354228787e-15 
   83       2.953180837085e-10       6.865788353206e-14      -1.665708502311e-12       0.000000000000e+00       1.649621528539e-11       2.112867149345e-12      -8.806193108235e-15 
   84       2.990084080429e-10       7.069762083145e-14      -1.744042401865e-12       0.000000000000e+00       1.601036159479e-11       2.060478744395e-12      -8.708375021018e-15 
   85       3.027305846389e-10       7.274844418374e-14      -1.823475230563e-12       0.000000000000e+00       1.554194004695e-11       2.009860106844e-12      -8.608235782633e-15 
   86       3.064850553575e-10       7.480867301579e-14      -1.903954507988e-12       0.000000000000e+00       1.509092364628e-11       1.961014385305e-12      -8.506207114315e-15 
   87       3.102720279103e-10       7.687657306383e-14      -1.985425784730e-12       0.000000000000e+00       1.465708223670e-11       1.913923140282e-12      -8.402736300938e-15 
   88       3.140914639300e-10       7.895035610233e-14      -2.067832642300e-12       0.000000000000e+00       1.423997408029e-11       1.868545436885e-12      -8.298286170519e-15 
   89       3.179430670401e-10       8.102817967282e-14      -2.151116693061e-12       0.000000000000e+00       1.383893743603e-11       1.824816937548e-12      -8.193335073721e-15 
   90       3.218262709248e-10       8.310814681272e-14      -2.235217580140e-12       0.000000000000e+00       1.345308213845e-11       1.782648994746e-12      -8.088376863359e-15 
   91       3.257402273992e-10       8.518830578424e-14      -2.320072977353e-12       0.000000000000e+00       1.308128117640e-11       1.741927743707e-12      -7.983920873905e-15 
   92       3.296837944790e-10       8.726664980318e-14      -2.405618589128e-12       0.000000000000e+00       1.272216227171e-11       1.702513195132e-12      -7.880491900992e-15 
   93       3.336558861792e-10       8.934117202076e-14      -2.491789631552e-12       0.000000000000e+00       1.237443334940e-11       1.664273174524e-12      -7.778583199873e-15 
   94       3.376566080022e-10       9.141004051731e-14      -2.578525530516e-12       0.000000000000e+00       1.203793323451e-11       1.627192949876e-12      -7.678507439028e-15 
   95       3.416862709639e-10       9.347144924876e-14      -2.665765933313e-12       0.000000000000e+00       1.171272414535e-11       1.591280491236e-12      -7.580523187774e-15 
   96       3.457450382113e-10       9.552356561953e-14      -2.753449310451e-12       0.000000000000e+00       1.139876809568e-11       1.556532670006e-12      -7.484879243460e-15 
   97       3.498329180572e-10       9.756453096980e-14      -2.841512975900e-12       0.000000000000e+00       1.109592305673e-11       1.522934829993e-12      -7.391813966078e-15 
   98       3.539497570161e-10       9.959246106284e-14      -2.929893107353e-12       0.000000000000e+00       1.080393911918e-11       1.490460358455e-12      -7.301554612861e-15 
   99       3.580952328390e-10       1.016054465723e-13      -3.018524766467e-12       0.000000000000e+00       1.052245465509e-11       1.459070257156e-12      -7.214316672890e-15 
  100       3.622688475492e-10       1.036015535693e-13      -3.107341919125e-12       0.000000000000e+00       1.025099247996e-11       1.428712713410e-12      -7.130303201694e-15 
  101       3.664699204775e-10       1.055788240103e-13      -3.196277455683e-12       0.000000000000e+00       9.988956014619e-12       1.399322671135e-12      -7.049704155857e-15 
  102       3.706975812975e-10       1.075352762236e-13      -3.285263211225e-12       0.000000000000e+00       9.735625447268e-12       1.370821401904e-12      -6.972695727621e-15 
  103       3.749507630608e-10       1.094689053973e-13      -3.374229985812e-12       0.000000000000e+00       9.490153895427e-12       1.343116075989e-12      -6.899439679485e-15 
  104       3.792284263455e-10       1.113777267922e-13      -3.463107851236e-12       0.000000000000e+00       9.251759329451e-12       1.316121394032e-12      -6.830018116381e-15 
  105       3.835302811838e-10       1.132599109800e-13      -3.551827074833e-12       0.000000000000e+00       9.020338136269e-12       1.289828733884e-12      -6.764229200291e-15 
  106       3.878561501259e-10       1.151136678674e-13      -3.640317358803e-12       0.000000000000e+00       8.795927669839e-12       1.264245588289e-12      -6.701762470691e-15 
  107       3.922057414646e-10       1.169372065470e-13      -3.728507587967e-12       0.000000000000e+00       8.578516224550e-12       1.239374154115e-12      -6.642259584420e-15 
