# dimensionless [l(l+1)/2pi] C_l's for scalar mode
# for l=2 to 3000, i.e. number of multipoles equal to 2999
#
# -> if you prefer output in CAMB/HealPix/LensPix units/order, set 'format' to 'camb' in input file
# -> if you don't want to see such a header, set 'headers' to 'no' in input file
# -> for CMB lensing (phi), these are C_l^phi-phi for the lensing potential.
#    Remember the conversion factors:
#    C_l^dd (deflection) = l(l+1) C_l^phi-phi
#    C_l^gg (shear/convergence) = 1/4 (l(l+1))^2 C_l^phi-phi
#
# 1:l     2:TT                     3:EE                     4:TE                     5:BB                     6:phiphi                 7:TPhi                   8:Ephi               
    2       1.434943099161e-10       5.120292046087e-15       3.941761145555e-13       0.000000000000e+00       8.287935995112e-09       4.689126794739e-10      -2.069993881104e-12 
    3       1.352938570264e-10       7.273240503281e-15       4.621053625816e-13       0.000000000000e+00       5.160099350701e-09       3.331218894292e-10      -1.657373589083e-12 
    4       1.274945246214e-10       7.071793977528e-15       4.487968061276e-13       0.000000000000e+00       3.594578853564e-09       2.523130878857e-10      -1.177780830116e-12 
    5       1.215506080725e-10       5.382718559106e-15       3.964198653169e-13       0.000000000000e+00       2.683764150327e-09       1.993639467810e-10      -7.495398919903e-13 
    6       1.173524514802e-10       3.408456933758e-15       3.303417809241e-13       0.000000000000e+00       2.095310599969e-09       1.622777874053e-10      -4.080369587337e-13 
    7       1.145553255491e-10       1.922480310417e-15       2.662179406646e-13       0.000000000000e+00       1.689101987830e-09       1.350212439754e-10      -1.621434562325e-13 
    8       1.127616949820e-10       1.103050788665e-15       2.121796313140e-13       0.000000000000e+00       1.395591660539e-09       1.143085509852e-10      -5.653073779899e-15 
    9       1.117825385971e-10       7.634655617780e-16       1.715573794929e-13       0.000000000000e+00       1.175650351431e-09       9.820841144149e-11       7.614467411369e-14 
   10       1.114358993736e-10       6.419664517685e-16       1.446077027748e-13       0.000000000000e+00       1.005622513605e-09       8.542527578609e-11       1.021455574082e-13 
   11       1.114981445132e-10       5.700817381853e-16       1.297992411099e-13       0.000000000000e+00       8.459688756098e-10       7.527881727046e-11       9.186575555726e-14 
   12       1.119421637368e-10       4.966584440274e-16       1.245779122077e-13       0.000000000000e+00       7.391232477656e-10       6.665567671695e-11       6.312137421019e-14 
   13       1.126567466452e-10       4.344252715015e-16       1.260920957165e-13       0.000000000000e+00       6.514234642439e-10       5.940072358759e-11       2.907245202410e-14 
   14       1.135842362541e-10       4.033110167657e-16       1.317499450432e-13       0.000000000000e+00       5.784553205490e-10       5.331216956231e-11      -9.923369771465e-16 
   15       1.147065495092e-10       4.062686332889e-16       1.394614753144e-13       0.000000000000e+00       5.170438152781e-10       4.816696929081e-11      -2.218712704493e-14 
   16       1.159487199396e-10       4.334871744871e-16       1.478951055257e-13       0.000000000000e+00       4.648350294757e-10       4.373642301658e-11      -3.331342515122e-14 
   17       1.173666587828e-10       4.753017933809e-16       1.562927757307e-13       0.000000000000e+00       4.200504306964e-10       3.978860947294e-11      -3.583246304815e-14 
   18       1.188710744940e-10       5.295517954624e-16       1.643124586121e-13       0.000000000000e+00       3.811799825037e-10       3.635528078125e-11      -3.220332027678e-14 
   19       1.204618472904e-10       6.002830344349e-16       1.720699139521e-13       0.000000000000e+00       3.476093687877e-10       3.339088959276e-11      -2.499102251536e-14 
   20       1.221295334156e-10       6.927189249828e-16       1.798290124298e-13       0.000000000000e+00       3.180435958425e-10       3.072564332198e-11      -1.731476711439e-14 
   21       1.238744679482e-10       8.088060460458e-16       1.878026692275e-13       0.000000000000e+00       2.920180791682e-10       2.835021210300e-11      -1.085712243296e-14 
   22       1.256706698179e-10       9.486755728999e-16       1.961548595993e-13       0.000000000000e+00       2.689101648947e-10       2.626658672375e-11      -6.763788739796e-15 
   23       1.275294286915e-10       1.111261091454e-15       2.048388029027e-13       0.000000000000e+00       2.484017167083e-10       2.443674472782e-11      -5.095841133268e-15 
   24       1.294502326926e-10       1.294832385174e-15       2.136843132465e-13       0.000000000000e+00       2.300180675501e-10       2.278399076320e-11      -5.393198110587e-15 
   25       1.314237419305e-10       1.499483315588e-15       2.224559295310e-13       0.000000000000e+00       2.135429719881e-10       2.126946377834e-11      -7.062395467793e-15 
   26       1.334251021670e-10       1.725697940738e-15       2.308553190013e-13       0.000000000000e+00       1.986784550403e-10       1.985840333270e-11      -9.331279302746e-15 
   27       1.354624578828e-10       1.973746340493e-15       2.386104161176e-13       0.000000000000e+00       1.852465282604e-10       1.856825251349e-11      -1.148125331084e-14 
   28       1.375434400166e-10       2.243870560784e-15       2.454523356761e-13       0.000000000000e+00       1.730159050733e-10       1.742033019861e-11      -1.283713001176e-14 
   29       1.396735826626e-10       2.537086664232e-15       2.512379719127e-13       0.000000000000e+00       1.619238759572e-10       1.640242467627e-11      -1.332128677446e-14 
   30       1.418441247951e-10       2.854703950732e-15       2.558600855788e-13       0.000000000000e+00       1.518508105363e-10       1.547699987799e-11      -1.308457802953e-14 
   31       1.440361486175e-10       3.198111358133e-15       2.592335355617e-13       0.000000000000e+00       1.425907114135e-10       1.459925889925e-11      -1.233430125276e-14 
   32       1.462556955328e-10       3.568720470295e-15       2.613781493520e-13       0.000000000000e+00       1.340958491144e-10       1.377117391491e-11      -1.126045712422e-14 
   33       1.485092523632e-10       3.968010825690e-15       2.623706478741e-13       0.000000000000e+00       1.263064791277e-10       1.300635622509e-11      -1.009043581835e-14 
   34       1.507955140175e-10       4.397408879070e-15       2.622928149423e-13       0.000000000000e+00       1.191139150787e-10       1.231301409221e-11      -9.065943099300e-15 
   35       1.531126753646e-10       4.857798334709e-15       2.611161849684e-13       0.000000000000e+00       1.124813184688e-10       1.168469113761e-11      -8.280973833111e-15 
   36       1.554518451040e-10       5.349829690912e-15       2.587775106304e-13       0.000000000000e+00       1.063553239854e-10       1.110525977973e-11      -7.788895736001e-15 
   37       1.578008616243e-10       5.874091447043e-15       2.552108117265e-13       0.000000000000e+00       1.006560424336e-10       1.055648465291e-11      -7.621277277941e-15 
   38       1.601675069263e-10       6.431284819531e-15       2.503549735135e-13       0.000000000000e+00       9.536872788173e-11       1.003790180076e-11      -7.706525786474e-15 
   39       1.625628597904e-10       7.022096906731e-15       2.441479680601e-13       0.000000000000e+00       9.047662525350e-11       9.552921987921e-12      -7.921919841432e-15 
   40       1.649945060061e-10       7.647148423595e-15       2.365243835597e-13       0.000000000000e+00       8.593309199538e-11       9.103286362148e-12      -8.112654941142e-15 
   41       1.674657873803e-10       8.307035646842e-15       2.274201702561e-13       0.000000000000e+00       8.167784752171e-11       8.688856358693e-12      -8.132836531915e-15 
   42       1.699743386789e-10       9.002482963378e-15       2.167895528700e-13       0.000000000000e+00       7.769835083984e-11       8.307319646017e-12      -7.989619513109e-15 
   43       1.725123154667e-10       9.734232776324e-15       2.045930520197e-13       0.000000000000e+00       7.398401519345e-11       7.954095442865e-12      -7.742412452537e-15 
   44       1.750661901404e-10       1.050300248240e-14       1.907928835779e-13       0.000000000000e+00       7.050778906591e-11       7.622188921587e-12      -7.464631268120e-15 
   45       1.776221839974e-10       1.130942862307e-14       1.753572339154e-13       0.000000000000e+00       6.723581563832e-11       7.304254437476e-12      -7.228583249193e-15 
   46       1.801856110148e-10       1.215388207891e-14       1.582745808233e-13       0.000000000000e+00       6.416294324416e-11       6.999936726818e-12      -7.052749163754e-15 
   47       1.827665151171e-10       1.303659571179e-14       1.395436748828e-13       0.000000000000e+00       6.128560176444e-11       6.710424179918e-12      -6.940170577521e-15 
   48       1.853741406381e-10       1.395771012640e-14       1.191698993050e-13       0.000000000000e+00       5.859109302728e-11       6.436353342820e-12      -6.892961962583e-15 
   49       1.880168008467e-10       1.491726939357e-14       9.716552772593e-14       0.000000000000e+00       5.605691198801e-11       6.177761392128e-12      -6.912232399690e-15 
   50       1.907005166852e-10       1.591528271684e-14       7.354105037787e-14       0.000000000000e+00       5.365752456812e-11       5.934227821664e-12      -6.996182145536e-15 
   51       1.934248024026e-10       1.695193908740e-14       4.827577889223e-14       0.000000000000e+00       5.138844494286e-11       5.705455100563e-12      -7.133964886820e-15 
   52       1.961855087178e-10       1.802744350229e-14       2.133970811699e-14       0.000000000000e+00       4.924752037935e-11       5.490763478070e-12      -7.310024122037e-15 
   53       1.989757677694e-10       1.914195496795e-14      -7.298408290498e-15       0.000000000000e+00       4.722772564688e-11       5.288877842353e-12      -7.505612393700e-15 
   54       2.017858037692e-10       2.029558532672e-14      -3.767122038025e-14       0.000000000000e+00       4.531683509863e-11       5.097889099413e-12      -7.698627101927e-15 
   55       2.046062148023e-10       2.148838668232e-14      -6.980948461890e-14       0.000000000000e+00       4.350115108809e-11       4.915779035311e-12      -7.869031705962e-15 
   56       2.074392067084e-10       2.272031270662e-14      -1.037308404944e-13       0.000000000000e+00       4.177852507984e-11       4.742236067471e-12      -8.017072541721e-15 
   57       2.102898182824e-10       2.399124566518e-14      -1.394485304398e-13       0.000000000000e+00       4.014799688750e-11       4.577222917103e-12      -8.149299867400e-15 
   58       2.131626417041e-10       2.530100539370e-14      -1.769746424776e-13       0.000000000000e+00       3.860585556379e-11       4.420436341596e-12      -8.273431231040e-15 
   59       2.160617684314e-10       2.664934768029e-14      -2.163201379386e-13       0.000000000000e+00       3.714546952126e-11       4.271290467321e-12      -8.398404896623e-15 
   60       2.189907350929e-10       2.803596264783e-14      -2.574948791808e-13       0.000000000000e+00       3.575711665290e-11       4.128900122432e-12      -8.534433270175e-15 
   61       2.219523542306e-10       2.946047170797e-14      -3.005044105790e-13       0.000000000000e+00       3.443068359260e-11       3.992344396637e-12      -8.689982874910e-15 
   62       2.249482845418e-10       3.092242128390e-14      -3.453393944521e-13       0.000000000000e+00       3.316485581627e-11       3.861564157061e-12      -8.861801273389e-15 
   63       2.279792677199e-10       3.242128480159e-14      -3.919838423126e-13       0.000000000000e+00       3.195969829153e-11       3.736637330041e-12      -9.042736198893e-15 
   64       2.310451784748e-10       3.395646236368e-14      -4.404180785499e-13       0.000000000000e+00       3.081389108279e-11       3.617508829323e-12      -9.224568252349e-15 
   65       2.341449667720e-10       3.552727908652e-14      -4.906186651334e-13       0.000000000000e+00       2.972465050751e-11       3.503982780253e-12      -9.397966810157e-15 
   66       2.372766000713e-10       3.713298343716e-14      -5.425583263149e-13       0.000000000000e+00       2.868765029258e-11       3.395714743967e-12      -9.552445932012e-15 
   67       2.404370055660e-10       3.877274557031e-14      -5.962058733314e-13       0.000000000000e+00       2.769694273058e-11       3.292203941589e-12      -9.676320268730e-15 
   68       2.436232080286e-10       4.044567012850e-14      -6.515294952828e-13       0.000000000000e+00       2.674654660817e-11       3.192933515295e-12      -9.759497751298e-15 
   69       2.468361401894e-10       4.215084137126e-14      -7.085075743984e-13       0.000000000000e+00       2.583576086028e-11       3.097841695335e-12      -9.802613320301e-15 
   70       2.500775042239e-10       4.388728424484e-14      -7.671199370300e-13       0.000000000000e+00       2.496479091093e-11       3.006932573711e-12      -9.809675224841e-15 
   71       2.533486177643e-10       4.565394945825e-14      -8.273446919768e-13       0.000000000000e+00       2.413314159985e-11       2.920132596350e-12      -9.785419942976e-15 
   72       2.566503867163e-10       4.744971219023e-14      -8.891582412799e-13       0.000000000000e+00       2.333958096729e-11       2.837286573411e-12      -9.735340641495e-15 
   73       2.599832780766e-10       4.927337079609e-14      -9.525352910164e-13       0.000000000000e+00       2.258210403873e-11       2.758153689579e-12      -9.665715635691e-15 
   74       2.633472927501e-10       5.112364551467e-14      -1.017448862093e-12       0.000000000000e+00       2.185789660964e-11       2.682403514373e-12      -9.583636849136e-15 
   75       2.667419383668e-10       5.299917717519e-14      -1.083870301043e-12       0.000000000000e+00       2.116329903023e-11       2.609612012446e-12      -9.497038273455e-15 
   76       2.701666577028e-10       5.489857213941e-14      -1.151768890070e-12       0.000000000000e+00       2.049471438850e-11       2.539366081282e-12      -9.413005183075e-15 
   77       2.736222642260e-10       5.682054944787e-14      -1.221110571247e-12       0.000000000000e+00       1.985160431064e-11       2.471607991566e-12      -9.332282913586e-15 
   78       2.771097201596e-10       5.876381828184e-14      -1.291859008198e-12       0.000000000000e+00       1.923397620161e-11       2.406346800519e-12      -9.253813786013e-15 
   79       2.806296865502e-10       6.072703376914e-14      -1.363975968745e-12       0.000000000000e+00       1.864147073411e-11       2.343553660940e-12      -9.176360833252e-15 
   80       2.841825054270e-10       6.270879663907e-14      -1.437421327477e-12       0.000000000000e+00       1.807334499895e-11       2.283160056953e-12      -9.098501005328e-15 
   81       2.877681819620e-10       6.470765287748e-14      -1.512153068335e-12       0.000000000000e+00       1.752845565553e-11       2.225056039753e-12      -9.018618374664e-15 
   82       2.913863666295e-10       6.672209338174e-14      -1.588127287182e-12       0.000000000000e+00       1.700524208215e-11       2.169088463343e-12      -8.934897341339e-15 
   83       2.950363373657e-10       6.875055361568e-14      -1.665298194381e-12       0.000000000000e+00       1.650170952649e-11       2.115059220285e-12      -8.845315838354e-15 
   84       2.987173500390e-10       7.079142293854e-14      -1.743617880604e-12       0.000000000000e+00       1.601591380846e-11       2.062775852898e-12      -8.748224246947e-15 
   85       3.024297956961e-10       7.284307512416e-14      -1.823035563987e-12       0.000000000000e+00       1.554754466200e-11       2.012216891651e-12      -8.644207295849e-15 
   86       3.061742033450e-10       7.490384229218e-14      -1.903498222313e-12       0.000000000000e+00       1.509657520535e-11       1.963390819140e-12      -8.534519802800e-15 
   87       3.099508772240e-10       7.697200550426e-14      -1.984950817300e-12       0.000000000000e+00       1.466277543037e-11       1.916285260689e-12      -8.420531412385e-15 
   88       3.137598851512e-10       7.904579458164e-14      -2.067336293205e-12       0.000000000000e+00       1.424570378237e-11       1.870866100356e-12      -8.303729645164e-15 
   89       3.176010468744e-10       8.112338792278e-14      -2.150595575415e-12       0.000000000000e+00       1.384469874004e-11       1.827076596936e-12      -8.185722946797e-15 
   90       3.214739224207e-10       8.320291232088e-14      -2.234667569047e-12       0.000000000000e+00       1.345887039523e-11       1.784836499965e-12      -8.068243737180e-15 
   91       3.253778004463e-10       8.528244278148e-14      -2.319489157547e-12       0.000000000000e+00       1.308709203283e-11       1.744041165723e-12      -7.953151459569e-15 
   92       3.293116865866e-10       8.736000234007e-14      -2.404995201282e-12       0.000000000000e+00       1.272799171064e-11       1.704560673240e-12      -7.842435629710e-15 
   93       3.332746174083e-10       8.943360987291e-14      -2.491120146166e-12       0.000000000000e+00       1.238027767525e-11       1.666271626085e-12      -7.737814254409e-15 
   94       3.372666815854e-10       9.150143215158e-14      -2.577803129316e-12       0.000000000000e+00       1.204378888416e-11       1.629159949088e-12      -7.639453375114e-15 
   95       3.412881314826e-10       9.356165442659e-14      -2.664983642262e-12       0.000000000000e+00       1.171858764944e-11       1.593231989771e-12      -7.547059685043e-15 
   96       3.453390641532e-10       9.561243494175e-14      -2.752600009771e-12       0.000000000000e+00       1.140463609347e-11       1.558482780647e-12      -7.460265528824e-15 
   97       3.494194141580e-10       9.765190541055e-14      -2.840589410538e-12       0.000000000000e+00       1.110179231130e-11       1.524895603892e-12      -7.378626397327e-15 
   98       3.535289463850e-10       9.967817149253e-14      -2.928887897888e-12       0.000000000000e+00       1.080980653302e-11       1.492441556024e-12      -7.301618422499e-15 
   99       3.576672488683e-10       1.016893132696e-13      -3.017430420473e-12       0.000000000000e+00       1.052831728616e-11       1.461079112581e-12      -7.228635872191e-15 
  100       3.618337256076e-10       1.036833857227e-13      -3.106150842971e-12       0.000000000000e+00       1.025684755799e-11       1.430753692794e-12      -7.158988644993e-15 
  101       3.660275893875e-10       1.056584192075e-13      -3.194981966781e-12       0.000000000000e+00       9.994800957954e-12       1.401397224264e-12      -7.091899765065e-15 
  102       3.702478545965e-10       1.076124199318e-13      -3.283855550720e-12       0.000000000000e+00       9.741457880008e-12       1.372927707639e-12      -7.026502876971e-15 
  103       3.744933300467e-10       1.095433704308e-13      -3.372702331727e-12       0.000000000000e+00       9.495971664988e-12       1.345248781293e-12      -6.961839740505e-15 
  104       3.787628713801e-10       1.114492748612e-13      -3.461452336659e-12       0.000000000000e+00       9.257560493831e-12       1.318271961891e-12      -6.897054535498e-15 
  105       3.830561925871e-10       1.133283008230e-13      -3.550035821101e-12       0.000000000000e+00       9.026120854934e-12       1.291987725359e-12      -6.832012065010e-15 
  106       3.873731512359e-10       1.151786576728e-13      -3.638382496552e-12       0.000000000000e+00       8.801690178635e-12       1.266403261049e-12      -6.766758780790e-15 
  107       3.917134943984e-10       1.169985543747e-13      -3.726421274259e-12       0.000000000000e+00       8.584256840186e-12       1.241520469401e-12      -6.701333092366e-15 
