# dimensionless [l(l+1)/2pi] C_l's for scalar mode
# for l=2 to 3000, i.e. number of multipoles equal to 2999
#
# -> if you prefer output in CAMB/HealPix/LensPix units/order, set 'format' to 'camb' in input file
# -> if you don't want to see such a header, set 'headers' to 'no' in input file
# -> for CMB lensing (phi), these are C_l^phi-phi for the lensing potential.
#    Remember the conversion factors:
#    C_l^dd (deflection) = l(l+1) C_l^phi-phi
#    C_l^gg (shear/convergence) = 1/4 (l(l+1))^2 C_l^phi-phi
#
# 1:l     2:TT                     3:EE                     4:TE                     5:BB                     6:phiphi                 7:TPhi                   8:Ephi               
    2       1.432469568053e-10       5.111465771605e-15       3.934966403087e-13       0.000000000000e+00       8.273662403511e-09       4.681045477728e-10      -2.066425657429e-12 
    3       1.350606397202e-10       7.260703011967e-15       4.613087930240e-13       0.000000000000e+00       5.151215188639e-09       3.325478246688e-10      -1.654516634253e-12 
    4       1.272747516750e-10       7.059603736393e-15       4.480231776389e-13       0.000000000000e+00       3.588391107517e-09       2.518783074145e-10      -1.175750589546e-12 
    5       1.213410811509e-10       5.373439918154e-15       3.957365233298e-13       0.000000000000e+00       2.679144401774e-09       1.990204243590e-10      -7.482478460193e-13 
    6       1.171501612712e-10       3.402581492243e-15       3.297723432426e-13       0.000000000000e+00       2.091703126078e-09       1.619981767732e-10      -4.073335897578e-13 
    7       1.143578569794e-10       1.919166370752e-15       2.657590385951e-13       0.000000000000e+00       1.686192926462e-09       1.347886023841e-10      -1.618639543185e-13 
    8       1.125673182429e-10       1.101149368015e-15       2.118138795856e-13       0.000000000000e+00       1.393187338877e-09       1.141116019505e-10      -5.643327383110e-15 
    9       1.115898497116e-10       7.621495125088e-16       1.712616517284e-13       0.000000000000e+00       1.173624430339e-09       9.803920736050e-11       7.601341882803e-14 
   10       1.112438080190e-10       6.408598406494e-16       1.443584304158e-13       0.000000000000e+00       1.003889111193e-09       8.527810005201e-11       1.019694820693e-13 
   11       1.113059458614e-10       5.690990407428e-16       1.295754953315e-13       0.000000000000e+00       8.445121084702e-10       7.514913634906e-11       9.170740007862e-14 
   12       1.117491996921e-10       4.958023124413e-16       1.243631668694e-13       0.000000000000e+00       7.378504803072e-10       6.654085439655e-11       6.301256759965e-14 
   13       1.124625508143e-10       4.336764164257e-16       1.258747402538e-13       0.000000000000e+00       6.503017210771e-10       5.929840149223e-11       2.902233816796e-14 
   14       1.133884416321e-10       4.026157959260e-16       1.315228366737e-13       0.000000000000e+00       5.774592296697e-10       5.322033753856e-11      -9.906258267767e-16 
   15       1.145088202622e-10       4.055683141590e-16       1.392210739369e-13       0.000000000000e+00       5.161534734097e-10       4.808400192461e-11      -2.214888079356e-14 
   16       1.157488494598e-10       4.327399364874e-16       1.476401663964e-13       0.000000000000e+00       4.640345877265e-10       4.366108930236e-11      -3.325599964286e-14 
   17       1.171643440835e-10       4.744824760349e-16       1.560233608368e-13       0.000000000000e+00       4.193271034551e-10       3.972007799648e-11      -3.577069528801e-14 
   18       1.186661665079e-10       5.286389628628e-16       1.640292195219e-13       0.000000000000e+00       3.805235854212e-10       3.629266505495e-11      -3.214780835907e-14 
   19       1.202541971566e-10       5.992482764991e-16       1.717733026892e-13       0.000000000000e+00       3.470107740807e-10       3.333338144904e-11      -2.494794300072e-14 
   20       1.219190085521e-10       6.915248275923e-16       1.795190261616e-13       0.000000000000e+00       3.174959073493e-10       3.067272709494e-11      -1.728491976563e-14 
   21       1.236609351955e-10       8.074118396020e-16       1.874789381020e-13       0.000000000000e+00       2.915152008822e-10       2.830138824253e-11      -1.083840664940e-14 
   22       1.254540408022e-10       9.470402616861e-16       1.958167311066e-13       0.000000000000e+00       2.684470726644e-10       2.622135231592e-11      -6.752128998062e-15 
   23       1.273095955780e-10       1.109345518021e-15       2.044857051726e-13       0.000000000000e+00       2.479739342934e-10       2.439466236599e-11      -5.087056619545e-15 
   24       1.292270885291e-10       1.292600374590e-15       2.133159677724e-13       0.000000000000e+00       2.296219362858e-10       2.274475515917e-11      -5.383901071489e-15 
   25       1.311971958645e-10       1.496898531125e-15       2.220724636903e-13       0.000000000000e+00       2.131752056167e-10       2.123283661528e-11      -7.050221143414e-15 
   26       1.331951061894e-10       1.722723211257e-15       2.304573744324e-13       0.000000000000e+00       1.983362803852e-10       1.982420623250e-11      -9.315193952500e-15 
   27       1.352289499453e-10       1.970344029296e-15       2.381991034409e-13       0.000000000000e+00       1.849274786527e-10       1.853627717446e-11      -1.146146189776e-14 
   28       1.373063449166e-10       2.240002613937e-15       2.450292290120e-13       0.000000000000e+00       1.727179121327e-10       1.739033173079e-11      -1.281500137752e-14 
   29       1.394328156580e-10       2.532713276331e-15       2.508048920648e-13       0.000000000000e+00       1.616449792979e-10       1.637417923715e-11      -1.329832356722e-14 
   30       1.415996162461e-10       2.849783059422e-15       2.554190382080e-13       0.000000000000e+00       1.515892557690e-10       1.545034824697e-11      -1.306202285984e-14 
   31       1.437878614941e-10       3.192598506832e-15       2.587866730938e-13       0.000000000000e+00       1.423450988579e-10       1.457411897124e-11      -1.231303939822e-14 
   32       1.460035823913e-10       3.562568769154e-15       2.609275900345e-13       0.000000000000e+00       1.338648612772e-10       1.374746013851e-11      -1.124104634277e-14 
   33       1.482532545777e-10       3.961170834459e-15       2.619183777041e-13       0.000000000000e+00       1.260889013889e-10       1.298395954310e-11      -1.007304189603e-14 
   34       1.505355752122e-10       4.389828698598e-15       2.618406789394e-13       0.000000000000e+00       1.189087199615e-10       1.229181126013e-11      -9.050315173986e-15 
   35       1.528487422750e-10       4.849424542532e-15       2.606660772207e-13       0.000000000000e+00       1.122875419252e-10       1.166457008882e-11      -8.266699019367e-15 
   36       1.551838797924e-10       5.340607743246e-15       2.583314342508e-13       0.000000000000e+00       1.061720938519e-10       1.108613633010e-11      -7.775469159155e-15 
   37       1.575288471169e-10       5.863965785660e-15       2.547708835633e-13       0.000000000000e+00       1.004826241004e-10       1.053830612654e-11      -7.608139650549e-15 
   38       1.598914128351e-10       6.420198677456e-15       2.499234157636e-13       0.000000000000e+00       9.520441212577e-11       1.002061631849e-11      -7.693241228857e-15 
   39       1.622826366296e-10       7.009992332582e-15       2.437271098432e-13       0.000000000000e+00       9.032073169688e-11       9.536471756669e-12      -7.908264013743e-15 
   40       1.647100912139e-10       7.633966396011e-15       2.361166667513e-13       0.000000000000e+00       8.578502056716e-11       9.087610538848e-12      -8.098670346394e-15 
   41       1.671771126343e-10       8.292716116610e-15       2.270281471396e-13       0.000000000000e+00       8.153710194033e-11       8.673894287250e-12      -8.118817157760e-15 
   42       1.696813397338e-10       8.986964632600e-15       2.164158546354e-13       0.000000000000e+00       7.756445641262e-11       8.293014640550e-12      -7.975847014808e-15 
   43       1.722149415993e-10       9.717453067358e-15       2.042403779108e-13       0.000000000000e+00       7.385651545167e-11       7.940398705806e-12      -7.729066081532e-15 
   44       1.747644139462e-10       1.048489758097e-14       1.904639979705e-13       0.000000000000e+00       7.038627411471e-11       7.609063701714e-12      -7.451763727263e-15 
   45       1.773160018234e-10       1.128993361764e-14       1.750549560248e-13       0.000000000000e+00       6.711993387446e-11       7.291676636313e-12      -7.216122603558e-15 
   46       1.798750100478e-10       1.213293141862e-14       1.580017497267e-13       0.000000000000e+00       6.405235193000e-11       6.987882867525e-12      -7.040591621834e-15 
   47       1.824514652304e-10       1.301412344438e-14       1.393031318111e-13       0.000000000000e+00       6.117996430495e-11       6.698868752755e-12      -6.928207103785e-15 
   48       1.850545957699e-10       1.393365005725e-14       1.189644762096e-13       0.000000000000e+00       5.849009468742e-11       6.425269758130e-12      -6.881079875343e-15 
   49       1.876927006047e-10       1.489155525207e-14       9.699803540124e-14       0.000000000000e+00       5.596027677906e-11       6.167123015312e-12      -6.900317103924e-15 
   50       1.903717902983e-10       1.588784821653e-14       7.341428153529e-14       0.000000000000e+00       5.356502046341e-11       5.924008757962e-12      -6.984122147183e-15 
   51       1.930913799372e-10       1.692271761604e-14       4.819256190549e-14       0.000000000000e+00       5.129984763555e-11       5.695629959023e-12      -7.121667388493e-15 
   52       1.958473273926e-10       1.799636809426e-14       2.130292308217e-14       0.000000000000e+00       4.916260926536e-11       5.481308020961e-12      -7.297423142803e-15 
   53       1.986327766420e-10       1.910895838355e-14      -7.285827415370e-15       0.000000000000e+00       4.714629221507e-11       5.279770007311e-12      -7.492674269686e-15 
   54       2.014379687484e-10       2.026060013344e-14      -3.760628335554e-14       0.000000000000e+00       4.523869188559e-11       5.089110087940e-12      -7.685356269941e-15 
   55       2.042535180037e-10       2.145134535785e-14      -6.968914818747e-14       0.000000000000e+00       4.342613421296e-11       4.907313504397e-12      -7.855467142002e-15 
   56       2.070816264454e-10       2.268114780851e-14      -1.035520309925e-13       0.000000000000e+00       4.170647435777e-11       4.734069217632e-12      -8.003252797120e-15 
   57       2.099273241824e-10       2.394988995393e-14      -1.392081513765e-13       0.000000000000e+00       4.007875378358e-11       4.569340029230e-12      -8.135252202055e-15 
   58       2.127951954787e-10       2.525739194036e-14      -1.766695765250e-13       0.000000000000e+00       3.853926792995e-11       4.412823237690e-12      -8.259169601220e-15 
   59       2.156893247395e-10       2.660340997688e-14      -2.159472488736e-13       0.000000000000e+00       3.708139662559e-11       4.263934000051e-12      -8.383927850683e-15 
   60       2.186132424968e-10       2.798763472055e-14      -2.570510137800e-13       0.000000000000e+00       3.569543450168e-11       4.121788693521e-12      -8.519721752172e-15 
   61       2.215697564446e-10       2.940968823560e-14      -2.999864060615e-13       0.000000000000e+00       3.437128560414e-11       3.985468015317e-12      -8.675003234115e-15 
   62       2.245605224208e-10       3.086911772710e-14      -3.447441041332e-13       0.000000000000e+00       3.310763766959e-11       3.854912932882e-12      -8.846525465339e-15 
   63       2.275862808404e-10       3.236539752873e-14      -3.913081470683e-13       0.000000000000e+00       3.190455555104e-11       3.730201229453e-12      -9.027148507858e-15 
   64       2.306469066293e-10       3.389792877721e-14      -4.396588931728e-13       0.000000000000e+00       3.076072158330e-11       3.611277903055e-12      -9.208667130823e-15 
   65       2.337413515628e-10       3.546603775224e-14      -4.897729448180e-13       0.000000000000e+00       2.967335687505e-11       3.497947404015e-12      -9.381766794345e-15 
   66       2.368675866046e-10       3.706897421635e-14      -5.416230732732e-13       0.000000000000e+00       2.863814260097e-11       3.389865872466e-12      -9.535979633330e-15 
   67       2.400225442447e-10       3.870590975475e-14      -5.951781435382e-13       0.000000000000e+00       2.764914129383e-11       3.286533375862e-12      -9.659640441305e-15 
   68       2.432032543844e-10       4.037595055334e-14      -6.504063995479e-13       0.000000000000e+00       2.670038203827e-11       3.187433931887e-12      -9.742674545576e-15 
   69       2.464106481460e-10       4.207818245020e-14      -7.072862607960e-13       0.000000000000e+00       2.579116497428e-11       3.092505875200e-12      -9.785715792414e-15 
   70       2.496464247710e-10       4.381163207236e-14      -7.657975884093e-13       0.000000000000e+00       2.492169517000e-11       3.001753292410e-12      -9.792765521897e-15 
   71       2.529118996201e-10       4.557525193759e-14      -8.259185289227e-13       0.000000000000e+00       2.409147831591e-11       2.915102758144e-12      -9.768552047804e-15 
   72       2.562079770376e-10       4.736791916356e-14      -8.876255250550e-13       0.000000000000e+00       2.329928457203e-11       2.832399352232e-12      -9.718559068329e-15 
   73       2.595351232151e-10       4.918843417698e-14      -9.508933264846e-13       0.000000000000e+00       2.254311241499e-11       2.753402676897e-12      -9.649054076804e-15 
   74       2.628933390559e-10       5.103551942269e-14      -1.015695000625e-12       0.000000000000e+00       2.182015248522e-11       2.677782873940e-12      -9.567116772409e-15 
   75       2.662821330387e-10       5.290781807285e-14      -1.082001943400e-12       0.000000000000e+00       2.112675143403e-11       2.605116641932e-12      -9.480667470901e-15 
   76       2.697009489004e-10       5.480393889154e-14      -1.149783489966e-12       0.000000000000e+00       2.045931854258e-11       2.534991593432e-12      -9.396779233747e-15 
   77       2.731505987064e-10       5.672260312740e-14      -1.219005641103e-12       0.000000000000e+00       1.981731636263e-11       2.467350100699e-12      -9.316196111679e-15 
   78       2.766320430214e-10       5.866252218680e-14      -1.289632123072e-12       0.000000000000e+00       1.920075228485e-11       2.402201207253e-12      -9.237862248694e-15 
   79       2.801459417522e-10       6.062235351580e-14      -1.361624769598e-12       0.000000000000e+00       1.860926759936e-11       2.339516117659e-12      -9.160542809678e-15 
   80       2.836926363388e-10       6.260070025578e-14      -1.434943524440e-12       0.000000000000e+00       1.804212067519e-11       2.279226436313e-12      -9.082817197382e-15 
   81       2.872721319441e-10       6.459611089897e-14      -1.509546443963e-12       0.000000000000e+00       1.749817013967e-11       2.221222406234e-12      -9.003072269398e-15 
   82       2.908840796449e-10       6.660707894410e-14      -1.585389699711e-12       0.000000000000e+00       1.697585805793e-11       2.165351147848e-12      -8.919495555129e-15 
   83       2.945277586221e-10       6.863204255195e-14      -1.662427580982e-12       0.000000000000e+00       1.647319311224e-11       2.111414897778e-12      -8.830068472766e-15 
   84       2.982024260269e-10       7.066939385813e-14      -1.740612261029e-12       0.000000000000e+00       1.598823447011e-11       2.059221532102e-12      -8.733144246779e-15 
   85       3.019084722317e-10       7.271750943975e-14      -1.819893045527e-12       0.000000000000e+00       1.552067239869e-11       2.008749617486e-12      -8.629306597963e-15 
   86       3.056464253328e-10       7.477472429152e-14      -1.900217003657e-12       0.000000000000e+00       1.507048006136e-11       1.960007620159e-12      -8.519808181142e-15 
   87       3.094165890440e-10       7.683932243816e-14      -1.981529192012e-12       0.000000000000e+00       1.463742784509e-11       1.912983184759e-12      -8.406016280065e-15 
   88       3.132190310666e-10       7.890953675233e-14      -2.063772653201e-12       0.000000000000e+00       1.422107495478e-11       1.867642251858e-12      -8.289415851277e-15 
   89       3.170535714589e-10       8.098354877254e-14      -2.146888414441e-12       0.000000000000e+00       1.382076100767e-11       1.823928175473e-12      -8.171612567996e-15 
   90       3.209197710065e-10       8.305948852098e-14      -2.230815486166e-12       0.000000000000e+00       1.343559762765e-11       1.781760840590e-12      -8.054335863984e-15 
   91       3.248169195920e-10       8.513543432148e-14      -2.315490860618e-12       0.000000000000e+00       1.306446003968e-11       1.741035780684e-12      -7.939441977421e-15 
   92       3.287440245646e-10       8.720941261736e-14      -2.400849510453e-12       0.000000000000e+00       1.270597866408e-11       1.701623295232e-12      -7.828916994779e-15 
   93       3.327001241520e-10       8.927944569994e-14      -2.486825994587e-12       0.000000000000e+00       1.235886397191e-11       1.663400197432e-12      -7.724475961579e-15 
   94       3.366853068751e-10       9.134370350088e-14      -2.573359555048e-12       0.000000000000e+00       1.202295519720e-11       1.626352436095e-12      -7.626284633040e-15 
   95       3.406998246636e-10       9.340037439891e-14      -2.660389787673e-12       0.000000000000e+00       1.169831454381e-11       1.590486348291e-12      -7.534050207909e-15 
   96       3.447437744037e-10       9.544761981264e-14      -2.747855123540e-12       0.000000000000e+00       1.138490419858e-11       1.555796975632e-12      -7.447405664497e-15 
   97       3.488170907688e-10       9.748357467608e-14      -2.835692849638e-12       0.000000000000e+00       1.108258250028e-11       1.522267629704e-12      -7.365907259830e-15 
   98       3.529195390523e-10       9.950634791420e-14      -2.923839129520e-12       0.000000000000e+00       1.079110010860e-11       1.489869457492e-12      -7.289032028797e-15 
   99       3.570507079985e-10       1.015140229185e-13      -3.012229023975e-12       0.000000000000e+00       1.051009617318e-11       1.458561006809e-12      -7.216175283302e-15 
  100       3.612100026343e-10       1.035046580225e-13      -3.100796511680e-12       0.000000000000e+00       1.023909450251e-11       1.428287791725e-12      -7.146648111414e-15 
  101       3.653966371014e-10       1.054762869774e-13      -3.189474509872e-12       0.000000000000e+00       9.977499732990e-12       1.398981857994e-12      -7.079674876514e-15 
  102       3.696096274873e-10       1.074269194276e-13      -3.278194895002e-12       0.000000000000e+00       9.724593497867e-12       1.370561348483e-12      -7.014390716448e-15 
  103       3.738477846573e-10       1.093545413862e-13      -3.366888523401e-12       0.000000000000e+00       9.479530596233e-12       1.342930068600e-12      -6.949839042677e-15 
  104       3.781099662262e-10       1.112571604502e-13      -3.455485542548e-12       0.000000000000e+00       9.241530555578e-12       1.315999688359e-12      -6.885165510177e-15 
  105       3.823958866774e-10       1.131329473782e-13      -3.543916328248e-12       0.000000000000e+00       9.010490042040e-12       1.289760700287e-12      -6.820235155121e-15 
  106       3.867054038245e-10       1.149801146135e-13      -3.632110713167e-12       0.000000000000e+00       8.786446420866e-12       1.264220281353e-12      -6.755094349297e-15 
  107       3.910382651754e-10       1.167968742077e-13      -3.719997731089e-12       0.000000000000e+00       8.569388086781e-12       1.239380328712e-12      -6.689781436145e-15 
