# dimensionless total lensed [l(l+1)/2pi] C_l's
# for l=2 to 2500, i.e. number of multipoles equal to 2499
#
# -> if you prefer output in CAMB/HealPix/LensPix units/order, set 'format' to 'camb' in input file
# -> if you don't want to see such a header, set 'headers' to 'no' in input file
# -> for CMB lensing (phi), these are C_l^phi-phi for the lensing potential.
#    Remember the conversion factors:
#    C_l^dd (deflection) = l(l+1) C_l^phi-phi
#    C_l^gg (shear/convergence) = 1/4 (l(l+1))^2 C_l^phi-phi
#
# 1:l     2:TT                     3:EE                     4:TE                     5:BB                     6:phiphi                 7:TPhi                   8:Ephi               
    2       2.842038653638e-10       7.781055708132e-15       5.606765391112e-13       4.782708157104e-15       8.322738166286e-09       4.599429470182e-10      -2.068992745376e-12 
    3       2.431765061075e-10       1.011014584861e-14       4.539412822038e-13       4.826555408122e-15       5.188119182281e-09       3.272374482932e-10      -1.658278489788e-12 
    4       2.243514096407e-10       9.704873686408e-15       3.879441583594e-13       4.206887097056e-15       3.614607624104e-09       2.480543830108e-10      -1.180849876758e-12 
    5       2.138606532167e-10       7.512491010690e-15       3.247015963944e-13       3.303209647378e-15       2.698911179772e-09       1.960700180065e-10      -7.539866594762e-13 
    6       2.069935630763e-10       4.957862856274e-15       2.622326290112e-13       2.402874446169e-15       2.107345149423e-09       1.596185754273e-10      -4.128673168629e-13 
    7       2.025191866857e-10       2.981085976341e-15       2.058661356671e-13       1.665317235710e-15       1.698665062317e-09       1.328466569389e-10      -1.664926466302e-13 
    8       1.996072411490e-10       1.836279815887e-15       1.591682022319e-13       1.144955802050e-15       1.403157100633e-09       1.125020884727e-10      -8.934247051993e-15 
    9       1.978136692935e-10       1.338816278595e-15       1.237638492803e-13       8.310498060984e-16       1.181799836180e-09       9.665940675683e-11       7.417468669347e-14 
   10       1.968139507645e-10       1.188911435298e-15       9.955178625591e-14       6.825943336832e-16       1.010857351815e-09       8.408184453011e-11       1.014165208298e-13 
   11       1.963565784333e-10       1.170590334708e-15       8.521218029309e-14       6.517866361254e-16       8.499550561675e-10       7.411517662196e-11       9.207908558788e-14 
   12       1.962574360805e-10       1.194144983695e-15       7.867445036847e-14       6.968993781021e-16       7.425704788751e-10       6.570228380608e-11       6.402234306672e-14 
   13       1.964953501509e-10       1.248894871977e-15       7.753266372602e-14       7.869437658146e-16       6.544282916757e-10       5.844186492181e-11       3.007684708813e-14 
   14       1.969569997862e-10       1.344076712730e-15       7.941446904590e-14       9.018253009372e-16       5.810988350287e-10       5.248421880728e-11      -1.739385580573e-17 
   15       1.975665480012e-10       1.479367808759e-15       8.250274007698e-14       1.029988383734e-15       5.193889809014e-10       4.749484102358e-11      -2.146187903510e-14 
   16       1.983394221131e-10       1.644268564513e-15       8.563191315540e-14       1.165874099966e-15       4.669284270894e-10       4.307387427532e-11      -3.311815506430e-14 
   17       1.992122004962e-10       1.829574218077e-15       8.806302915022e-14       1.306691045175e-15       4.219281901717e-10       3.917390620408e-11      -3.595659637208e-14 
   18       2.001485925813e-10       2.032720834362e-15       8.959022248762e-14       1.451999583553e-15       3.828725956357e-10       3.577234299478e-11      -3.256077686844e-14 
   19       2.011898652874e-10       2.257483581405e-15       9.037043215605e-14       1.601582257290e-15       3.491445401586e-10       3.283987274691e-11      -2.553194702440e-14 
   20       2.022935534723e-10       2.509058200578e-15       9.068503861161e-14       1.755232770102e-15       3.194412362268e-10       3.026792120992e-11      -1.792759936525e-14 
   21       2.034597809791e-10       2.789369122608e-15       9.077822583111e-14       1.912833367340e-15       2.932954985845e-10       2.798369119079e-11      -1.141254722230e-14 
   22       2.046474585332e-10       3.098567795825e-15       9.086665859213e-14       2.074364092568e-15       2.700817383427e-10       2.589683276601e-11      -7.146996413552e-15 
   23       2.058749219334e-10       3.435491888737e-15       9.097053337572e-14       2.239713804715e-15       2.494802514384e-10       2.402308489217e-11      -5.269891317328e-15 
   24       2.071396001777e-10       3.798290471768e-15       9.099295315413e-14       2.408769529002e-15       2.310139821304e-10       2.238262510202e-11      -5.411399719282e-15 
   25       2.084450852355e-10       4.186894511706e-15       9.071618083517e-14       2.581331544920e-15       2.144652175229e-10       2.093073241567e-11      -6.947713730930e-15 
   26       2.097697081209e-10       4.601655406296e-15       8.984268380678e-14       2.757197094085e-15       1.995341299067e-10       1.959083303872e-11      -9.058918001194e-15 
   27       2.111176984746e-10       5.042883349743e-15       8.810956103676e-14       2.936200855875e-15       1.860421407400e-10       1.835182913505e-11      -1.112532798518e-14 
   28       2.124833757715e-10       5.510904780157e-15       8.526480869703e-14       3.118189125667e-15       1.737573207113e-10       1.721449581304e-11      -1.259338403845e-14 
   29       2.138822080688e-10       6.006608500705e-15       8.120493300134e-14       3.302921717927e-15       1.626166207461e-10       1.617898107267e-11      -1.331867399766e-14 
   30       2.153131458522e-10       6.531097981985e-15       7.587572239897e-14       3.490130726487e-15       1.524996340604e-10       1.523558865908e-11      -1.329935294126e-14 
   31       2.167555553180e-10       7.085507601727e-15       6.924214258529e-14       3.679551890515e-15       1.431991983907e-10       1.436668780071e-11      -1.259482970197e-14 
   32       2.182181871787e-10       7.670859114335e-15       6.132655488838e-14       3.870949415793e-15       1.346673725927e-10       1.356861685798e-11      -1.142530187755e-14 
   33       2.197036365788e-10       8.288152858706e-15       5.218779815368e-14       4.064101023347e-15       1.268442386657e-10       1.283637470540e-11      -1.011979513107e-14 
   34       2.212018572286e-10       8.938361947329e-15       4.189249032770e-14       4.258781696738e-15       1.196207127021e-10       1.216021511719e-11      -9.021066280621e-15 
   35       2.227204748545e-10       9.622283929868e-15       3.044262909954e-14       4.454727750716e-15       1.129597510539e-10       1.153624489097e-11      -8.221224290991e-15 
   36       2.242618962485e-10       1.034063163569e-14       1.782343337646e-14       4.651659746511e-15       1.068076606390e-10       1.095858304595e-11      -7.735368957753e-15 
   37       2.258195247158e-10       1.109404219433e-14       4.016072544900e-15       4.849304711721e-15       1.010841107568e-10       1.041883919126e-11      -7.557794444222e-15 
   38       2.273978159885e-10       1.188298878227e-14      -1.102385874122e-14       5.047441703554e-15       9.577428578402e-11       9.915550877145e-12      -7.618884015784e-15 
   39       2.289966160445e-10       1.270782999460e-14      -2.735262422712e-14       5.245871668105e-15       9.086138215683e-11       9.447310153899e-12      -7.811345365064e-15 
   40       2.306043315606e-10       1.356882518374e-14      -4.503334451407e-14       5.444406020273e-15       8.629858620124e-11       9.009923584373e-12      -7.999298882081e-15 
   41       2.322057010189e-10       1.446622317373e-14      -6.412900454250e-14       5.642846238875e-15       8.202538371017e-11       8.597982840190e-12      -8.053000404286e-15 
   42       2.338108928345e-10       1.540057865430e-14      -8.467731114261e-14       5.840913220035e-15       7.802916751663e-11       8.210779923136e-12      -7.971184539664e-15 
   43       2.354339595784e-10       1.637252791834e-14      -1.067086500603e-13       6.038295936360e-15       7.429927883459e-11       7.847905485074e-12      -7.795341060517e-15 
   44       2.370842252058e-10       1.738270266764e-14      -1.302530366098e-13       6.234669628831e-15       7.080851793848e-11       7.507481789366e-12      -7.577125638936e-15 
   45       2.387665685922e-10       1.843165318204e-14      -1.553334012579e-13       6.429711494471e-15       6.752285265819e-11       7.186931182108e-12      -7.368763698861e-15 
   46       2.404836225636e-10       1.951959027763e-14      -1.819428902063e-13       6.623155329782e-15       6.443710742410e-11       6.885838319832e-12      -7.189390273091e-15 
   47       2.422333319013e-10       2.064656631878e-14      -2.100608958366e-13       6.814751788723e-15       6.154770435920e-11       6.603739460609e-12      -7.049694215814e-15 
   48       2.440077275831e-10       2.181254117084e-14      -2.396589375311e-13       7.004253375532e-15       5.884190063501e-11       6.339241178864e-12      -6.961283061429e-15 
   49       2.457924442796e-10       2.301737783883e-14      -2.707003399467e-13       7.191414553276e-15       5.629710687786e-11       6.089951505792e-12      -6.936710500549e-15 
   50       2.475728183319e-10       2.426086961781e-14      -3.031506432034e-13       7.375993152339e-15       5.388769100882e-11       5.853215204257e-12      -6.984988399983e-15 
   51       2.493552524441e-10       2.554284035026e-14      -3.370129111180e-13       7.557754794765e-15       5.160914829001e-11       5.628714635704e-12      -7.096622964724e-15 
   52       2.511508161579e-10       2.686306384362e-14      -3.723014508670e-13       7.736469858497e-15       4.945931378755e-11       5.416455841154e-12      -7.254564305244e-15 
   53       2.529690034931e-10       2.822123192708e-14      -4.090320976777e-13       7.911912448097e-15       4.743112882161e-11       5.215995827433e-12      -7.438186265585e-15 
   54       2.548175601135e-10       2.961695157309e-14      -4.472223981328e-13       8.083860564475e-15       4.551231162835e-11       5.026411549207e-12      -7.623101407320e-15 
   55       2.567021810191e-10       3.104979768081e-14      -4.868872659834e-13       8.252104787991e-15       4.368910218430e-11       4.846587911687e-12      -7.786865043325e-15 
   56       2.586259116253e-10       3.251949337570e-14      -5.280242658900e-13       8.416476464928e-15       4.195934056650e-11       4.676236620680e-12      -7.928170549334e-15 
   57       2.605892951669e-10       3.402576945844e-14      -5.706249949193e-13       8.576826820433e-15       4.032206067628e-11       4.515076106367e-12      -8.052098509725e-15 
   58       2.625903151299e-10       3.556831197306e-14      -6.146792964928e-13       8.733019549125e-15       3.877353383840e-11       4.362516494078e-12      -8.164688917515e-15 
   59       2.646242173726e-10       3.714676149721e-14      -6.601752672952e-13       8.884931316513e-15       3.730709819658e-11       4.217641015713e-12      -8.272985601810e-15 
   60       2.666833322480e-10       3.876071243236e-14      -7.070992641840e-13       9.032452260411e-15       3.591298810900e-11       4.079187421146e-12      -8.385080655261e-15 
   61       2.687600592895e-10       4.040969255581e-14      -7.554372745318e-13       9.175481647923e-15       3.458104544552e-11       3.945897091191e-12      -8.508076060683e-15 
   62       2.708570065522e-10       4.209309791888e-14      -8.051793710584e-13       9.313912572894e-15       3.330995059674e-11       3.817695999944e-12      -8.641333407595e-15 
   63       2.729788218650e-10       4.381024200992e-14      -8.563162737447e-13       9.447644697777e-15       3.209977015299e-11       3.694747052711e-12      -8.781780943882e-15 
   64       2.751291550975e-10       4.556037289352e-14      -9.088381238103e-13       9.576589135790e-15       3.094918024384e-11       3.577098990995e-12      -8.925841445573e-15 
   65       2.773105806276e-10       4.734267187451e-14      -9.627345338840e-13       9.700668798619e-15       2.985538737422e-11       3.464679470808e-12      -9.069410558594e-15 
   66       2.795245198088e-10       4.915625216183e-14      -1.017994638172e-12       9.819818744125e-15       2.881404926053e-11       3.357288140971e-12      -9.207835140531e-15 
   67       2.817711634378e-10       5.100015753258e-14      -1.074607142631e-12       9.933986524053e-15       2.781919566669e-11       3.254589721424e-12      -9.335891602390e-15 
   68       2.840503578319e-10       5.287336495240e-14      -1.132558679829e-12       1.004312508528e-14       2.686482245260e-11       3.156218690822e-12      -9.448682982159e-15 
   69       2.863646448584e-10       5.477479603975e-14      -1.191828374323e-12       1.014716902610e-14       2.595022574424e-11       3.062133453745e-12      -9.544589654198e-15 
   70       2.887167014422e-10       5.670330553517e-14      -1.252392261150e-12       1.024605413134e-14       2.507561135953e-11       2.972321832385e-12      -9.622880350532e-15 
   71       2.911083785195e-10       5.865767633760e-14      -1.314224890390e-12       1.033972454761e-14       2.424048150970e-11       2.886691812548e-12      -9.682848135981e-15 
   72       2.935406481498e-10       6.063661826954e-14      -1.377299333974e-12       1.042813294055e-14       2.344359842865e-11       2.805067476411e-12      -9.723812246892e-15 
   73       2.960135506281e-10       6.263876684221e-14      -1.441587192501e-12       1.051124065207e-14       2.268294800213e-11       2.727184935290e-12      -9.745119929879e-15 
   74       2.985261415972e-10       6.466268202065e-14      -1.507058602044e-12       1.058901785762e-14       2.195570339697e-11       2.652688262401e-12      -9.746148280553e-15 
   75       3.010764391598e-10       6.670684698892e-14      -1.573682240961e-12       1.066144372347e-14       2.125818869039e-11       2.581125425622e-12      -9.726306082265e-15 
   76       3.036624575525e-10       6.876972431905e-14      -1.641425718933e-12       1.072850494902e-14       2.058679111162e-11       2.512058136390e-12      -9.685318994379e-15 
   77       3.062856426921e-10       7.084993903270e-14      -1.710256810889e-12       1.079019073939e-14       1.994097021629e-11       2.445423513186e-12      -9.624141092168e-15 
   78       3.089479699419e-10       7.294612683328e-14      -1.780142461512e-12       1.084649719750e-14       1.932073392066e-11       2.381231286193e-12      -9.544213663507e-15 
   79       3.116508830168e-10       7.505687960680e-14      -1.851048437392e-12       1.089742897981e-14       1.872572192484e-11       2.319454028656e-12      -9.447204130990e-15 
   80       3.143952633761e-10       7.718074536412e-14      -1.922939341677e-12       1.094299942047e-14       1.815518879410e-11       2.260025425593e-12      -9.335013700981e-15 
   81       3.171813996168e-10       7.931622818318e-14      -1.995778628720e-12       1.098323065545e-14       1.760798704019e-11       2.202838542491e-12      -9.209785012665e-15 
   82       3.200089568668e-10       8.146178815130e-14      -2.069528618730e-12       1.101815374669e-14       1.708255020266e-11       2.147744094022e-12      -9.073909787091e-15 
   83       3.228769461776e-10       8.361584130740e-14      -2.144150512420e-12       1.104780880624e-14       1.657687593012e-11       2.094548712742e-12      -8.930036476221e-15 
   84       3.257843478869e-10       8.577675751804e-14      -2.219604063819e-12       1.107224124585e-14       1.608901255751e-11       2.043064704591e-12      -8.780848609583e-15 
   85       3.287321674867e-10       8.794285382730e-14      -2.295846504288e-12       1.109148953943e-14       1.561864857893e-11       1.993272584982e-12      -8.628340859476e-15 
   86       3.317216660427e-10       9.011239989345e-14      -2.372833466158e-12       1.110559565003e-14       1.516575688129e-11       1.945182438792e-12      -8.474436428856e-15 
   87       3.347537172014e-10       9.228361986607e-14      -2.450519317481e-12       1.111460878217e-14       1.473010634473e-11       1.898783976084e-12      -8.321209422496e-15 
   88       3.378287875736e-10       9.445469229358e-14      -2.528857170934e-12       1.111858544093e-14       1.431125338604e-11       1.854045666136e-12      -8.170888642205e-15 
   89       3.409469171190e-10       9.662375003078e-14      -2.607798892726e-12       1.111758949090e-14       1.390853350208e-11       1.810913871472e-12      -8.025861382060e-15 
   90       3.441076995301e-10       9.878888014637e-14      -2.687295111498e-12       1.111169221526e-14       1.352105281322e-11       1.769311981891e-12      -7.888677223626e-15 
   91       3.473102626167e-10       1.009481238305e-13      -2.767295227227e-12       1.110097237477e-14       1.314767960676e-11       1.729139548498e-12      -7.762051831187e-15 
   92       3.505532486896e-10       1.030994763022e-13      -2.847747420135e-12       1.108551626681e-14       1.278703588035e-11       1.690271417731e-12      -7.648870746970e-15 
   93       3.538353637468e-10       1.052409357483e-13      -2.928599070005e-12       1.106541357706e-14       1.243782420960e-11       1.652587825736e-12      -7.551445577354e-15 
   94       3.571571621217e-10       1.073706587587e-13      -3.009798066944e-12       1.104074409246e-14       1.209988295412e-11       1.616071739932e-12      -7.469146340143e-15 
   95       3.605194952273e-10       1.094868282069e-13      -3.091291715140e-12       1.101158908975e-14       1.177327485767e-11       1.580724624653e-12      -7.400418382215e-15 
   96       3.639229550207e-10       1.115876068734e-13      -3.173026354356e-12       1.097803536596e-14       1.145796206269e-11       1.546536350200e-12      -7.343491879347e-15 
   97       3.673678621947e-10       1.136711380275e-13      -3.254947374464e-12       1.094017523971e-14       1.115380225671e-11       1.513484751860e-12      -7.296375369138e-15 
   98       3.708542543702e-10       1.157355460071e-13      -3.336999229985e-12       1.089810655249e-14       1.086054481867e-11       1.481535188922e-12      -7.256849283927e-15 
   99       3.743818742880e-10       1.177789367995e-13      -3.419125454625e-12       1.085193266992e-14       1.057782696535e-11       1.450640103694e-12      -7.222459483711e-15 
  100       3.779501580010e-10       1.197993986219e-13      -3.501268675816e-12       1.080176248305e-14       1.030516989768e-11       1.420738580522e-12      -7.190510789066e-15 
  101       3.815582230658e-10       1.217950025022e-13      -3.583370629251e-12       1.074771040958e-14       1.004197494712e-11       1.391755904806e-12      -7.158060514066e-15 
  102       3.852048567352e-10       1.237638028594e-13      -3.665372173421e-12       1.068989639517e-14       9.787519722042e-12       1.363603122017e-12      -7.121911999206e-15 
  103       3.888885041500e-10       1.257038380839e-13      -3.747213304156e-12       1.062844591471e-14       9.540954254080e-12       1.336176596716e-12      -7.078608144318e-15 
  104       3.926076843750e-10       1.276131717141e-13      -3.828833363193e-12       1.056348524237e-14       9.301493657121e-12       1.309382478708e-12      -7.025219974274e-15 
  105       3.963623279473e-10       1.294900210473e-13      -3.910171664663e-12       1.049512653138e-14       9.069034044277e-12       1.283214815335e-12      -6.961847582997e-15 
  106       4.001525988389e-10       1.313326470654e-13      -3.991166980728e-12       1.042348071172e-14       8.843613015375e-12       1.257687218023e-12      -6.889446546797e-15 
  107       4.039784757267e-10       1.331393164051e-13      -4.071757371579e-12       1.034866199129e-14       8.625218900373e-12       1.232808732142e-12      -6.809065302479e-15 
