# dimensionless total [l(l+1)/2pi] C_l's
# for l=2 to 3000, i.e. number of multipoles equal to 2999
#
# -> if you prefer output in CAMB/HealPix/LensPix units/order, set 'format' to 'camb' in input file
# -> if you don't want to see such a header, set 'headers' to 'no' in input file
# -> for CMB lensing (phi), these are C_l^phi-phi for the lensing potential.
#    Remember the conversion factors:
#    C_l^dd (deflection) = l(l+1) C_l^phi-phi
#    C_l^gg (shear/convergence) = 1/4 (l(l+1))^2 C_l^phi-phi
#
# 1:l     2:TT                     3:EE                     4:TE                     5:BB                     6:phiphi                 7:TPhi                   8:Ephi               
    2       2.857109577405e-10       7.737187208413e-15       5.610485288890e-13       4.752087211995e-15       8.434843030905e-09       4.650102726306e-10      -2.059107313039e-12 
    3       2.437086510541e-10       1.003053649454e-14       4.521822669206e-13       4.790436478325e-15       5.183090782101e-09       3.304255169823e-10      -1.650908530063e-12 
    4       2.247949512105e-10       9.611407042463e-15       3.866734071914e-13       4.170347933521e-15       3.609136249632e-09       2.505697247287e-10      -1.174319619456e-12 
    5       2.142272044045e-10       7.425985430116e-15       3.236698108169e-13       3.270296478637e-15       2.696616102662e-09       1.980981575553e-10      -7.483515697515e-13 
    6       2.072966960772e-10       4.891692408340e-15       2.614218888912e-13       2.375877936186e-15       2.107731430411e-09       1.612763254469e-10      -4.084515717126e-13 
    7       2.027553845946e-10       2.938310345888e-15       2.052907491514e-13       1.644738992294e-15       1.701023100645e-09       1.342366155340e-10      -1.633765769846e-13 
    8       1.998278209809e-10       1.811730743272e-15       1.587597004252e-13       1.130200272338e-15       1.405823501621e-09       1.136947604107e-10      -7.083194977611e-15 
    9       1.980148747541e-10       1.324796945178e-15       1.234564830107e-13       8.207832194854e-16       1.183386922228e-09       9.767517814294e-11       7.491110018909e-14 
   10       1.969614666487e-10       1.179191641579e-15       9.938302296909e-14       6.754674742917e-16       1.011177578820e-09       8.493047948576e-11       1.012922876782e-13 
   11       1.964793414466e-10       1.162198238756e-15       8.522461241942e-14       6.464669998527e-16       8.495940716417e-10       7.493690402605e-11       9.150645710265e-14 
   12       1.964090868631e-10       1.186356933522e-15       7.880961886829e-14       6.924178878549e-16       7.423419932832e-10       6.628207819629e-11       6.295212658785e-14 
   13       1.966350256895e-10       1.241948881761e-15       7.767563391456e-14       7.824503000556e-16       6.543031642699e-10       5.921884292133e-11       2.934729028705e-14 
   14       1.970577366246e-10       1.337797876326e-15       7.957269834569e-14       8.969870663409e-16       5.810556008920e-10       5.306335957594e-11      -7.091610431149e-16 
   15       1.976753642797e-10       1.473495619754e-15       8.272961947459e-14       1.024437442569e-15       5.194023897331e-10       4.789922208003e-11      -2.197704750527e-14 
   16       1.984437800119e-10       1.638541771419e-15       8.584743418676e-14       1.159363447833e-15       4.669843909475e-10       4.349071719004e-11      -3.322893458270e-14 
   17       1.993057934942e-10       1.823642578947e-15       8.822287267613e-14       1.299443001130e-15       4.220198691543e-10       3.966410823579e-11      -3.568945821751e-14 
   18       2.002385985972e-10       2.026852570901e-15       8.978953680236e-14       1.443785424524e-15       3.829926635159e-10       3.627113616524e-11      -3.210465984158e-14 
   19       2.012702143711e-10       2.252015038475e-15       9.065962500018e-14       1.592162363793e-15       3.492863120892e-10       3.328736608506e-11      -2.504754352560e-14 
   20       2.023420767215e-10       2.504122505179e-15       9.100787159532e-14       1.744597422019e-15       3.195990784093e-10       3.065765206092e-11      -1.747581877359e-14 
   21       2.034751404340e-10       2.785000136972e-15       9.110753050164e-14       1.900956521884e-15       2.934647919813e-10       2.833862093690e-11      -1.100182926413e-14 
   22       2.046572432317e-10       3.094730731819e-15       9.124326355684e-14       2.061126936748e-15       2.702591859961e-10       2.625266937871e-11      -6.759042367334e-15 
   23       2.058878224318e-10       3.432119977234e-15       9.140840918118e-14       2.225014040420e-15       2.496632998931e-10       2.437116379211e-11      -4.946813556918e-15 
   24       2.071345454770e-10       3.795313038117e-15       9.145310302375e-14       2.392561746309e-15       2.312008230883e-10       2.266234981312e-11      -5.268681435989e-15 
   25       2.084204096789e-10       4.184306402560e-15       9.117224135048e-14       2.563610391824e-15       2.146547492651e-10       2.112966138164e-11      -7.038986101305e-15 
   26       2.097533395672e-10       4.599549905259e-15       9.029698452115e-14       2.737971466083e-15       1.997258443791e-10       1.976814450684e-11      -9.326046716698e-15 
   27       2.111184146105e-10       5.041429122830e-15       8.854625639512e-14       2.915380747704e-15       1.862350456523e-10       1.854431536731e-11      -1.144272312390e-14 
   28       2.124781940892e-10       5.510328609897e-15       8.564076616855e-14       3.095561791904e-15       1.739497261408e-10       1.740970721483e-11      -1.279775946866e-14 
   29       2.138503534026e-10       6.007110673711e-15       8.149353463977e-14       3.278289507452e-15       1.628071824605e-10       1.636153892659e-11      -1.330727256396e-14 
   30       2.152493583068e-10       6.532812518538e-15       7.608677963210e-14       3.463367612609e-15       1.526878176358e-10       1.540360409584e-11      -1.308135358314e-14 
   31       2.166701161357e-10       7.088505874210e-15       6.941860841867e-14       3.650605041588e-15       1.433852676756e-10       1.453113660135e-11      -1.229206617570e-14 
   32       2.181199706804e-10       7.675242499543e-15       6.149362997593e-14       3.839764107620e-15       1.348515320147e-10       1.373607092626e-11      -1.116017558370e-14 
   33       2.195936905128e-10       8.294090729178e-15       5.233105250542e-14       4.030593316522e-15       1.270262964583e-10       1.300196246747e-11      -9.973142341231e-15 
   34       2.210736618374e-10       8.946083912465e-15       4.196211152932e-14       4.222838461136e-15       1.198000879074e-10       1.230875125813e-11      -9.023417286261e-15 
   35       2.225687540061e-10       9.631988860469e-15       3.040837609594e-14       4.416235097084e-15       1.131359525438e-10       1.165756455671e-11      -8.362775624552e-15 
   36       2.240858943546e-10       1.035244982692e-14       1.769715572134e-14       4.610512950482e-15       1.069804583249e-10       1.105378343333e-11      -7.962569617233e-15 
   37       2.256230543219e-10       1.110804523430e-14       3.847560701119e-15       4.805407832349e-15       1.012535265800e-10       1.049985467721e-11      -7.778849684159e-15 
   38       2.271856898400e-10       1.189929192049e-14      -1.119903764194e-14       5.000696888760e-15       9.594038308418e-11       9.994051944870e-12      -7.758772825389e-15 
   39       2.287735302295e-10       1.272663313696e-14      -2.753331212614e-14       5.196175388767e-15       9.102418932211e-11       9.530772056868e-12      -7.834053055882e-15 
   40       2.303746995359e-10       1.359043056505e-14      -4.526078094083e-14       5.391647969295e-15       8.645807153509e-11       9.100451671611e-12      -7.917616187164e-15 
   41       2.319731427623e-10       1.449101910717e-14      -6.448205567830e-14       5.586909344351e-15       8.218145647238e-11       8.692478070217e-12      -7.924687241071e-15 
   42       2.335765871289e-10       1.542890555148e-14      -8.522319996836e-14       5.781677616998e-15       7.818177291654e-11       8.305839920005e-12      -7.847354060651e-15 
   43       2.351957401289e-10       1.640462558955e-14      -1.074845572504e-13       5.975640142485e-15       7.444842602863e-11       7.941398409435e-12      -7.702144441212e-15 
   44       2.368359403118e-10       1.741868808089e-14      -1.312593249165e-13       6.168470649036e-15       7.095428213350e-11       7.598852014406e-12      -7.510031975682e-15 
   45       2.384987511389e-10       1.847152761158e-14      -1.565355202367e-13       6.359844952645e-15       6.766536527621e-11       7.277111251412e-12      -7.294849557491e-15 
   46       2.401886431168e-10       1.956334814342e-14      -1.833033647669e-13       6.549495675120e-15       6.457650669131e-11       6.975795775828e-12      -7.077320869516e-15 
   47       2.419073476053e-10       2.069423053861e-14      -2.115495403808e-13       6.737172461653e-15       6.168411328097e-11       6.694012164099e-12      -6.879709000303e-15 
   48       2.436514414106e-10       2.186417093263e-14      -2.412548857504e-13       6.922626963366e-15       5.897541480892e-11       6.429844325233e-12      -6.727682715090e-15 
   49       2.454119057474e-10       2.307307684778e-14      -2.723941953217e-13       7.105612954019e-15       5.642778142076e-11       6.180279407986e-12      -6.650482404790e-15 
   50       2.471786472553e-10       2.432078975096e-14      -3.049445475955e-13       7.285887072291e-15       5.401554039610e-11       5.942087264763e-12      -6.672690676935e-15 
   51       2.489565309820e-10       2.560716896230e-14      -3.389134213948e-13       7.463211015427e-15       5.173419111886e-11       5.714912167099e-12      -6.786525716019e-15 
   52       2.507529370105e-10       2.693202380455e-14      -3.743178639584e-13       7.637350142761e-15       4.958158327890e-11       5.498892227424e-12      -6.972314121995e-15 
   53       2.525729761641e-10       2.829508657010e-14      -4.111768242660e-13       7.808073044847e-15       4.755067035871e-11       5.293750663652e-12      -7.206005266739e-15 
   54       2.544192824763e-10       2.969600987897e-14      -4.495113533944e-13       7.975151689602e-15       4.562918005875e-11       5.098766579626e-12      -7.458942167351e-15 
   55       2.562930069266e-10       3.113439775343e-14      -4.893393398756e-13       8.138372460031e-15       4.380335941603e-11       4.913054593747e-12      -7.703908592379e-15 
   56       2.581975631654e-10       3.260991393477e-14      -5.306577252467e-13       8.297572143580e-15       4.207105467471e-11       4.736552010731e-12      -7.935554447098e-15 
   57       2.601354488027e-10       3.412219584702e-14      -5.734562213989e-13       8.452611139292e-15       4.043130346019e-11       4.569225704155e-12      -8.154643159020e-15 
   58       2.621069684406e-10       3.567082193823e-14      -6.177223761985e-13       8.603363907606e-15       3.888037766907e-11       4.410767941787e-12      -8.362235073708e-15 
   59       2.641100729464e-10       3.725531035216e-14      -6.634415609198e-13       8.749719540849e-15       3.741161264866e-11       4.260579199075e-12      -8.559702856634e-15 
   60       2.661401987250e-10       3.887511759979e-14      -7.105969576787e-13       8.891582333724e-15       3.601523637668e-11       4.117750972628e-12      -8.748746895033e-15 
   61       2.681925569559e-10       4.052965390178e-14      -7.591716335146e-13       9.028863968796e-15       3.468108343319e-11       3.981322422912e-12      -8.930712234174e-15 
   62       2.702699653719e-10       4.221833624518e-14      -8.091553350895e-13       9.161456732622e-15       3.340783522449e-11       3.851156499399e-12      -9.104325378371e-15 
   63       2.723764971941e-10       4.394054493280e-14      -8.605392037726e-13       9.289255272674e-15       3.219556014187e-11       3.727230868316e-12      -9.267474509640e-15 
   64       2.745151049429e-10       4.569560717964e-14      -9.133138761517e-13       9.412164750255e-15       3.104293407118e-11       3.609373106908e-12      -9.417856500427e-15 
   65       2.766875374467e-10       4.748279631348e-14      -9.674695376741e-13       9.530101144930e-15       2.994716110464e-11       3.497252205324e-12      -9.552970153681e-15 
   66       2.788942568501e-10       4.930133097541e-14      -1.022995976287e-12       9.642991558973e-15       2.890389425283e-11       3.390370068493e-12      -9.670109442923e-15 
   67       2.811343556221e-10       5.115037432037e-14      -1.079882636080e-12       9.750774521801e-15       2.790715615643e-11       3.288053018007e-12      -9.766356752324e-15 
   68       2.834066615317e-10       5.302900519967e-14      -1.138116528508e-12       9.853394964354e-15       2.695093566937e-11       3.189631789353e-12      -9.839121046077e-15 
   69       2.857134980789e-10       5.493612671473e-14      -1.197675354689e-12       9.950787279216e-15       2.603453050664e-11       3.095042871719e-12      -9.887894115041e-15 
   70       2.880575404369e-10       5.687053761264e-14      -1.258533079462e-12       1.004288935916e-14       2.515814969489e-11       3.004334308916e-12      -9.912839683126e-15 
   71       2.904406432380e-10       5.883095717587e-14      -1.320661949370e-12       1.012964778863e-14       2.432129771194e-11       2.917484373678e-12      -9.914287012690e-15 
   72       2.928637879644e-10       6.081602370627e-14      -1.384032491500e-12       1.021101801183e-14       2.352273805981e-11       2.834397890393e-12      -9.892738081427e-15 
   73       2.953270303393e-10       6.282429300906e-14      -1.448613512342e-12       1.028696450088e-14       2.276045683770e-11       2.754902557838e-12      -9.848874759246e-15 
   74       2.978294477182e-10       6.485423687678e-14      -1.514372096624e-12       1.035746092392e-14       2.203162631511e-11       2.678745271910e-12      -9.783565985160e-15 
   75       3.003690864800e-10       6.690424157330e-14      -1.581273606171e-12       1.042249031323e-14       2.133256850478e-11       2.605588448359e-12      -9.697874944163e-15 
   76       3.029440010997e-10       6.897268102957e-14      -1.649283056025e-12       1.048204293547e-14       2.065966827408e-11       2.535096581229e-12      -9.593332333307e-15 
   77       3.055557064109e-10       7.105815519178e-14      -1.718369535091e-12       1.053610908238e-14       2.001238543569e-11       2.467222269693e-12      -9.472797824927e-15 
   78       3.082062622253e-10       7.315929258478e-14      -1.788502593273e-12       1.058468526478e-14       1.939072829765e-11       2.401965911067e-12      -9.339769464186e-15 
   79       3.108972077657e-10       7.527467947188e-14      -1.859650962356e-12       1.062777651286e-14       1.879433617127e-11       2.339288294925e-12      -9.198143945014e-15 
   80       3.136295314428e-10       7.740285987085e-14      -1.931782583100e-12       1.066539649715e-14       1.822246241520e-11       2.279108776184e-12      -9.052229243375e-15 
   81       3.164036406325e-10       7.954233556993e-14      -2.004864632328e-12       1.069756764956e-14       1.767395747956e-11       2.221303448200e-12      -8.906757250514e-15 
   82       3.192193314526e-10       8.169156614380e-14      -2.078863550014e-12       1.072432128436e-14       1.714725194999e-11       2.165703315849e-12      -8.766896406224e-15 
   83       3.220757585398e-10       8.384896896965e-14      -2.153745066379e-12       1.074569771919e-14       1.664033959172e-11       2.112092468625e-12      -8.638264332095e-15 
   84       3.249720339241e-10       8.601291308691e-14      -2.229472724225e-12       1.076174279892e-14       1.615126501460e-11       2.060260543518e-12      -8.525594892385e-15 
   85       3.279092039258e-10       8.818169957205e-14      -2.306003105164e-12       1.077249654013e-14       1.567971669815e-11       2.010174108412e-12      -8.428457810581e-15 
   86       3.308885460976e-10       9.035357792459e-14      -2.383289857987e-12       1.077800281722e-14       1.522566819636e-11       1.961830472974e-12      -8.344849319118e-15 
   87       3.339109499052e-10       9.252675184782e-14      -2.461285134829e-12       1.077831285185e-14       1.478888864740e-11       1.915205023991e-12      -8.272464806223e-15 
   88       3.369768970778e-10       9.469937916141e-14      -2.539939592963e-12       1.077348527341e-14       1.436893429871e-11       1.870250310889e-12      -8.208688834511e-15 
   89       3.400864419578e-10       9.686957171386e-14      -2.619202396604e-12       1.076358617963e-14       1.396514003214e-11       1.826895131262e-12      -8.150585159583e-15 
   90       3.432391918510e-10       9.903539529512e-14      -2.699021218707e-12       1.074868919712e-14       1.357661088904e-11       1.785043616389e-12      -8.094886748618e-15 
   91       3.464342873764e-10       1.011948695491e-13      -2.779342242769e-12       1.072887554188e-14       1.320221359536e-11       1.744574316761e-12      -8.037985798972e-15 
   92       3.496703828164e-10       1.033459678861e-13      -2.860110164626e-12       1.070423407987e-14       1.284056808676e-11       1.705339287599e-12      -7.975923756769e-15 
   93       3.529461872828e-10       1.054866667600e-13      -2.941269237982e-12       1.067485677551e-14       1.249037500808e-11       1.667200751031e-12      -7.905316574065e-15 
   94       3.562622239975e-10       1.076151021663e-13      -3.022766586934e-12       1.064082412266e-14       1.215147296345e-11       1.630149376361e-12      -7.826311344397e-15 
   95       3.596193005083e-10       1.097294366292e-13      -3.104549397300e-12       1.060221762422e-14       1.182392534734e-11       1.594202181155e-12      -7.740057959923e-15 
   96       3.630179596568e-10       1.118278125166e-13      -3.186563933190e-12       1.055912420619e-14       1.150769472706e-11       1.559366146334e-12      -7.647816312742e-15 
   97       3.664584676276e-10       1.139083526301e-13      -3.268755553135e-12       1.051163621490e-14       1.120263897976e-11       1.525637817510e-12      -7.550959151356e-15 
   98       3.699408019955e-10       1.159691607955e-13      -3.351068726218e-12       1.045985141423e-14       1.090850742941e-11       1.493002906310e-12      -7.450974937132e-15 
   99       3.734646397746e-10       1.180083224525e-13      -3.433447048197e-12       1.040387298289e-14       1.062493698373e-11       1.461435891712e-12      -7.349470700763e-15 
  100       3.770293454662e-10       1.200239052454e-13      -3.515833257631e-12       1.034380951161e-14       1.035144827122e-11       1.430899621375e-12      -7.248174898729e-15 
  101       3.806339591070e-10       1.220139596127e-13      -3.598169252012e-12       1.027977500043e-14       1.008744177806e-11       1.401344912972e-12      -7.148940269762e-15 
  102       3.842771843174e-10       1.239765193777e-13      -3.680396103889e-12       1.021188885586e-14       9.832193985152e-12       1.372710155520e-12      -7.053746691305e-15 
  103       3.879573763498e-10       1.259096023383e-13      -3.762454076993e-12       1.014027588820e-14       9.584853505049e-12       1.344920910708e-12      -6.964704035975e-15 
  104       3.916729795028e-10       1.278112521727e-13      -3.844282705780e-12       1.006506189410e-14       9.344634126635e-12       1.317907231133e-12      -6.883575587863e-15 
  105       3.954239324012e-10       1.296796693318e-13      -3.925821011542e-12       9.986359730815e-15       9.111431968670e-12       1.291659137995e-12      -6.810268818482e-15 
  106       3.992104311508e-10       1.315130990108e-13      -4.007007345686e-12       9.904281346906e-15       8.885284881008e-12       1.266177929282e-12      -6.744145112816e-15 
  107       4.030324899958e-10       1.333097924447e-13      -4.087779345556e-12       9.818941978189e-15       8.666181302875e-12       1.241458930580e-12      -6.684478620795e-15 
