# dimensionless total lensed [l(l+1)/2pi] C_l's
# for l=2 to 2500, i.e. number of multipoles equal to 2499
#
# -> if you prefer output in CAMB/HealPix/LensPix units/order, set 'format' to 'camb' in input file
# -> if you don't want to see such a header, set 'headers' to 'no' in input file
# -> for CMB lensing (phi), these are C_l^phi-phi for the lensing potential.
#    Remember the conversion factors:
#    C_l^dd (deflection) = l(l+1) C_l^phi-phi
#    C_l^gg (shear/convergence) = 1/4 (l(l+1))^2 C_l^phi-phi
#
# 1:l     2:TT                     3:EE                     4:TE                     5:BB                     6:phiphi                 7:TPhi                   8:Ephi               
    2       2.854585442204e-10       7.806894373283e-15       5.603665671692e-13       4.801786938469e-15       8.287668899696e-09       4.688832636261e-10      -2.069962567090e-12 
    3       2.442152983384e-10       1.011721700244e-14       4.540119149067e-13       4.836909854146e-15       5.159925520181e-09       3.331017844420e-10      -1.657326594537e-12 
    4       2.251777079699e-10       9.682013391317e-15       3.881848805596e-13       4.207434624986e-15       3.594452734716e-09       2.522989024460e-10      -1.177729793700e-12 
    5       2.145250422313e-10       7.469495154784e-15       3.248964403329e-13       3.296703379780e-15       2.683670032600e-09       1.993535041266e-10      -7.494955703662e-13 
    6       2.075463275893e-10       4.913154120991e-15       2.623285262241e-13       2.393078528713e-15       2.095238049531e-09       1.622697294405e-10      -4.080046809408e-13 
    7       2.029901337251e-10       2.947884664011e-15       2.058536153879e-13       1.655471651555e-15       1.689043080841e-09       1.350148566935e-10      -1.621219192319e-13 
    8       2.000076138711e-10       1.817776736654e-15       1.590668476971e-13       1.137032332602e-15       1.395541661722e-09       1.143034551331e-10      -5.638293157066e-15 
    9       1.981644693209e-10       1.330982903407e-15       1.236125618018e-13       8.259143736122e-16       1.175606790794e-09       9.820425034264e-11       7.615543361176e-14 
   10       1.971372052324e-10       1.186204572918e-15       9.941853687404e-14       6.802042746380e-16       1.005583777521e-09       8.542164179242e-11       1.021533072133e-13 
   11       1.966195347722e-10       1.169515581589e-15       8.518252384794e-14       6.517363007461e-16       8.459442450466e-10       7.527637199350e-11       9.186925823615e-14 
   12       1.965363256854e-10       1.193998878931e-15       7.874030117600e-14       6.985134856119e-16       7.391018060573e-10       6.665332846082e-11       6.312288625874e-14 
   13       1.967476976056e-10       1.250026928459e-15       7.762427178490e-14       7.898041769291e-16       6.514044411229e-10       5.939862456223e-11       2.907380206163e-14 
   14       1.971780493468e-10       1.346924608083e-15       7.954517945157e-14       9.054172186897e-16       5.784381765455e-10       5.331021704691e-11      -9.905397661701e-16 
   15       1.977981068306e-10       1.483632407313e-15       8.262931668214e-14       1.034154638692e-15       5.170283099036e-10       4.816511241555e-11      -2.218497958017e-14 
   16       1.985261534130e-10       1.649587661313e-15       8.570199400265e-14       1.170513832706e-15       4.648208290585e-10       4.373472482342e-11      -3.331117093308e-14 
   17       1.994144675872e-10       1.835874955848e-15       8.811853025401e-14       1.311721665657e-15       4.200372006568e-10       3.978708423689e-11      -3.583035916338e-14 
   18       2.003660606201e-10       2.040178631559e-15       8.961309018364e-14       1.457439084427e-15       3.811675429155e-10       3.635384209256e-11      -3.220161888756e-14 
   19       2.013981345093e-10       2.266418602172e-15       9.034908863936e-14       1.607449898759e-15       3.475975845228e-10       3.338948745750e-11      -2.498987254438e-14 
   20       2.024820199590e-10       2.519873907046e-15       9.065347178636e-14       1.761515409393e-15       3.180323782408e-10       3.072431167340e-11      -1.731416044296e-14 
   21       2.036285942785e-10       2.802287561664e-15       9.077253053116e-14       1.919535094139e-15       2.920073500135e-10       2.834895610486e-11      -1.085695721690e-14 
   22       2.048064169870e-10       3.113537135111e-15       9.090421458811e-14       2.081524028308e-15       2.688998556880e-10       2.626535347198e-11      -6.763903000018e-15 
   23       2.060342305793e-10       3.452413078671e-15       9.103544671500e-14       2.247383968624e-15       2.483917689124e-10       2.443551268068e-11      -5.096111233314e-15 
   24       2.073054660651e-10       3.817112623699e-15       9.103526349552e-14       2.417007858347e-15       2.300084388550e-10       2.278279315309e-11      -5.393573008932e-15 
   25       2.086167041545e-10       4.207671448786e-15       9.069858189090e-14       2.590203327988e-15       2.135336258215e-10       2.126831204144e-11      -7.062828403182e-15 
   26       2.099397963477e-10       4.624570479656e-15       8.975746853911e-14       2.766757782650e-15       1.986693613148e-10       1.985726858977e-11      -9.331709070136e-15 
   27       2.112853480726e-10       5.068180953341e-15       8.796557702644e-14       2.946415284756e-15       1.852376613409e-10       1.856712270295e-11      -1.148161837411e-14 
   28       2.126569974251e-10       5.538855862941e-15       8.507965178487e-14       3.128918101847e-15       1.730072452394e-10       1.741922484927e-11      -1.283738072163e-14 
   29       2.140681183834e-10       6.037432213535e-15       8.097966944828e-14       3.314046549824e-15       1.619154045095e-10       1.640135790848e-11      -1.332141226561e-14 
   30       2.155108104835e-10       6.564919693017e-15       7.558208593748e-14       3.501606355217e-15       1.518425108338e-10       1.547596575579e-11      -1.308462427671e-14 
   31       2.169579801850e-10       7.122375991165e-15       6.882625580570e-14       3.691408335863e-15       1.425825709613e-10       1.459823247084e-11      -1.233436472545e-14 
   32       2.184208762131e-10       7.710920333610e-15       6.075322018515e-14       3.883213535998e-15       1.340878562152e-10       1.377013525191e-11      -1.126060428044e-14 
   33       2.199082945356e-10       8.331729787475e-15       5.146019351797e-14       4.076767906268e-15       1.262986233787e-10       1.300530038229e-11      -1.009066758369e-14 
   34       2.214151604013e-10       8.985922842218e-15       4.104929195550e-14       4.271821536264e-15       1.191061885714e-10       1.231195132274e-11      -9.066197098591e-15 
   35       2.229429860365e-10       9.674157362417e-15       2.951058192358e-14       4.468146789051e-15       1.124737137739e-10       1.168363272512e-11      -8.281195825084e-15 
   36       2.244832321130e-10       1.039688232177e-14       1.679851547908e-14       4.665526891256e-15       1.063478344883e-10       1.110421326894e-11      -7.789066318281e-15 
   37       2.260202489029e-10       1.115449082880e-14       2.865016410512e-15       4.863741224246e-15       1.006486630125e-10       1.055545368039e-11      -7.621411927572e-15 
   38       2.275660619851e-10       1.194751118707e-14      -1.233060596533e-14       5.062530021903e-15       9.536145341321e-11       1.003688897187e-11      -7.706643708499e-15 
   39       2.291349761540e-10       1.277646978238e-14      -2.882903936342e-14       5.261617641308e-15       9.046945073172e-11       9.551929670477e-12      -7.922033946965e-15 
   40       2.307330615289e-10       1.364183512298e-14      -4.667407391945e-14       5.460721349068e-15       8.592601332881e-11       9.102316665221e-12      -8.112770016511e-15 
   41       2.323597352343e-10       1.454405445851e-14      -6.591166262337e-14       5.659558377564e-15       8.167086188501e-11       8.687910874396e-12      -8.132949395061e-15 
   42       2.340153866697e-10       1.548368698580e-14      -8.658588556231e-14       5.857871102267e-15       7.769145533757e-11       8.306398386320e-12      -7.989726209638e-15 
   43       2.356946514549e-10       1.646130769591e-14      -1.087422664882e-13       6.055409188106e-15       7.397720678840e-11       7.953196320111e-12      -7.742510493828e-15 
   44       2.373833502928e-10       1.747746979286e-14      -1.324292118119e-13       6.251922724706e-15       7.050106501781e-11       7.621307428309e-12      -7.464719975317e-15 
   45       2.390656073094e-10       1.853263704010e-14      -1.576866483775e-13       6.447157966491e-15       6.722917371292e-11       7.303383994180e-12      -7.228663675707e-15 
   46       2.407495511458e-10       1.962695903952e-14      -1.845072714559e-13       6.640843030603e-15       6.415638105911e-11       6.999071308811e-12      -7.052822554399e-15 
   47       2.424479921315e-10       2.076042706720e-14      -2.128641550981e-13       6.832697925896e-15       6.127911680685e-11       6.709559319742e-12      -6.940237888605e-15 
   48       2.441708985154e-10       2.193293017972e-14      -2.427209714375e-13       7.022438205668e-15       5.858468294073e-11       6.435486531251e-12      -6.893023781412e-15 
   49       2.459250832297e-10       2.314425037465e-14      -2.740315821296e-13       7.209774723810e-15       5.605057488313e-11       6.176892502852e-12      -6.912288859236e-15 
   50       2.477142371782e-10       2.439411631998e-14      -3.067515227266e-13       7.394426410321e-15       5.365125912276e-11       5.933359028107e-12      -6.996233042288e-15 
   51       2.495397664576e-10       2.568239296344e-14      -3.408770786656e-13       7.576163251759e-15       5.138224974892e-11       5.704589051731e-12      -7.134010484477e-15 
   52       2.513996409439e-10       2.700893502516e-14      -3.764161097933e-13       7.754774555827e-15       4.924139387923e-11       5.489902783741e-12      -7.310065447155e-15 
   53       2.532877777460e-10       2.837353089320e-14      -4.133772319878e-13       7.930057311748e-15       4.722166629860e-11       5.288025047204e-12      -7.505651344406e-15 
   54       2.551937442778e-10       2.977590054028e-14      -4.517699682658e-13       8.101816559080e-15       4.531084155344e-11       5.097046655808e-12      -7.698666561574e-15 
   55       2.571069939299e-10       3.121572009907e-14      -4.916038892470e-13       8.269867705728e-15       4.349522225099e-11       4.914949214813e-12      -7.869075346303e-15 
   56       2.590314855184e-10       3.269270750986e-14      -5.328854383284e-13       8.434043311365e-15       4.177265975556e-11       4.741420673709e-12      -8.017123592938e-15 
   57       2.609741755272e-10       3.420655450060e-14      -5.756205824909e-13       8.594188635178e-15       4.014219376012e-11       4.576423145610e-12      -8.149360673288e-15 
   58       2.629406859875e-10       3.575690077054e-14      -6.198158631392e-13       8.750160269407e-15       3.860011330455e-11       4.419652691683e-12      -8.273503089953e-15 
   59       2.649351841441e-10       3.734333294556e-14      -6.654785078336e-13       8.901826584109e-15       3.713978690392e-11       4.270522650287e-12      -8.398487895087e-15 
   60       2.669602621215e-10       3.896538353354e-14      -7.126165420203e-13       9.049068171924e-15       3.575149267665e-11       4.128146966113e-12      -8.534526109150e-15 
   61       2.690175767385e-10       4.062251991527e-14      -7.612343298446e-13       9.191775822706e-15       3.442511750471e-11       3.991603983309e-12      -8.690083049288e-15 
   62       2.711102090027e-10       4.231411079260e-14      -8.113177741951e-13       9.329842909994e-15       3.315934679047e-11       3.860834730937e-12      -8.861906420450e-15 
   63       2.732406231055e-10       4.403945032120e-14      -8.628459778009e-13       9.463172077069e-15       3.195424538641e-11       3.735917602200e-12      -9.042844528353e-15 
   64       2.754098586991e-10       4.579776607667e-14      -9.157954883685e-13       9.591677915412e-15       3.080849330533e-11       3.616798064633e-12      -9.224678643004e-15 
   65       2.776174346812e-10       4.758821769368e-14      -9.701402652810e-13       9.715287331101e-15       2.971930688079e-11       3.503280888147e-12      -9.398078910620e-15 
   66       2.798612529808e-10       4.940989550522e-14      -1.025851646297e-12       9.833939911191e-15       2.868235992755e-11       3.395022373080e-12      -9.552560265556e-15 
   67       2.821375023427e-10       5.126181918174e-14      -1.082898314251e-12       9.947588290110e-15       2.769170490202e-11       3.291522578241e-12      -9.676438342222e-15 
   68       2.844423966404e-10       5.314294552363e-14      -1.141249028661e-12       1.005618974050e-14       2.674136075964e-11       3.192265313257e-12      -9.759621919099e-15 
   69       2.867780138969e-10       5.505219671364e-14      -1.200881537718e-12       1.015967814818e-14       2.583062637000e-11       3.097188427583e-12      -9.802745846230e-15 
   70       2.891474729948e-10       5.698843537085e-14      -1.261775420576e-12       1.025798699066e-14       2.495970705546e-11       3.006295290392e-12      -9.809817990197e-15 
   71       2.915531554202e-10       5.895045479742e-14      -1.323909518961e-12       1.035105774968e-14       2.412810759090e-11       2.919511536521e-12      -9.785574387085e-15 
   72       2.939966559667e-10       6.093697785188e-14      -1.387261974583e-12       1.043884005314e-14       2.333459599071e-11       2.836681073656e-12      -9.735507699984e-15 
   73       2.964787334398e-10       6.294665582248e-14      -1.451810266550e-12       1.052129181705e-14       2.257716729570e-11       2.757562089521e-12      -9.665895676487e-15 
   74       2.989992613604e-10       6.497806730041e-14      -1.517531248781e-12       1.059837938749e-14       2.185300736012e-11       2.681823059058e-12      -9.583829606195e-15 
   75       3.015571786691e-10       6.702971705317e-14      -1.584401187417e-12       1.067007768256e-14       2.115845663862e-11       2.609038751616e-12      -9.497242778214e-15 
   76       3.041513409358e-10       6.910008229232e-14      -1.652394730337e-12       1.073637006632e-14       2.048991832553e-11       2.538795110408e-12      -9.413219836118e-15 
   77       3.067833621613e-10       7.118776370835e-14      -1.721481516042e-12       1.079724763045e-14       1.984685400983e-11       2.471034796987e-12      -9.332506011509e-15 
   78       3.094552040386e-10       7.329136005872e-14      -1.791629011483e-12       1.085271003888e-14       1.922927103853e-11       2.405767697088e-12      -9.254043672351e-15 
   79       3.121682910886e-10       7.540942306435e-14      -1.862803540363e-12       1.090276591840e-14       1.863681005055e-11       2.342965906547e-12      -9.176595914919e-15 
   80       3.149234798301e-10       7.754045725478e-14      -1.934970298658e-12       1.094743299515e-14       1.806872812842e-11       2.282561971002e-12      -9.098739769712e-15 
   81       3.177210279488e-10       7.968291981328e-14      -2.008093370125e-12       1.098673823105e-14       1.752388194990e-11       2.224447125590e-12      -9.018859407362e-15 
   82       3.205605634672e-10       8.183522042207e-14      -2.082135741820e-12       1.102071796025e-14       1.700071093973e-11       2.168469534648e-12      -8.935139344545e-15 
   83       3.234410539143e-10       8.399572110745e-14      -2.157059319616e-12       1.104941802560e-14       1.649722042126e-11       2.114432531414e-12      -8.845557649891e-15 
   84       3.263614377143e-10       8.616274285921e-14      -2.232824144178e-12       1.107288901687e-14       1.601146628884e-11       2.062144896550e-12      -8.748464876204e-15 
   85       3.293227061511e-10       8.833458708900e-14      -2.309385855601e-12       1.109117077944e-14       1.554313824933e-11       2.011585126486e-12      -8.644446012199e-15 
   86       3.323261116279e-10       9.050951746195e-14      -2.386697834954e-12       1.110430557571e-14       1.509220937830e-11       1.962761296482e-12      -8.534756181463e-15 
   87       3.353725167257e-10       9.268575339830e-14      -2.464711968491e-12       1.111234280836e-14       1.465844964037e-11       1.915660570409e-12      -8.420765365722e-15 
   88       3.384623745020e-10       9.486147003242e-14      -2.543378649730e-12       1.111533907446e-14       1.424141746986e-11       1.870248315055e-12      -8.303961454895e-15 
   89       3.415957087907e-10       9.703479817182e-14      -2.622646781530e-12       1.111335821963e-14       1.384045135136e-11       1.826467214422e-12      -8.185953297139e-15 
   90       3.447720945011e-10       9.920382425613e-14      -2.702463778165e-12       1.110647139212e-14       1.345466140033e-11       1.784236384031e-12      -8.068473748903e-15 
   91       3.479906379173e-10       1.013665903162e-13      -2.782775567405e-12       1.109475709699e-14       1.308292094370e-11       1.743450485219e-12      -7.953382724978e-15 
   92       3.512499569974e-10       1.035210939329e-13      -2.863526592592e-12       1.107830125024e-14       1.272385810048e-11       1.703978839448e-12      -7.842670248545e-15 
   93       3.545487292669e-10       1.056653342065e-13      -2.944660938026e-12       1.105719331666e-14       1.237618117445e-11       1.665697408347e-12      -7.738054733092e-15 
   94       3.578874725485e-10       1.077974576615e-13      -3.026125894222e-12       1.103151394145e-14       1.203972910107e-11       1.628592159587e-12      -7.639702090513e-15 
   95       3.612669968757e-10       1.099156343121e-13      -3.107868935204e-12       1.100134554987e-14       1.171456415639e-11       1.592669682014e-12      -7.547318719623e-15 
   96       3.646878490126e-10       1.120180141900e-13      -3.189836660239e-12       1.096677609806e-14       1.140064843608e-11       1.557925276366e-12      -7.460536636578e-15 
   97       3.681503005451e-10       1.141027279351e-13      -3.271974811328e-12       1.092789907344e-14       1.109784001822e-11       1.524342520720e-12      -7.378910968747e-15 
   98       3.716543359708e-10       1.161678873860e-13      -3.354228290708e-12       1.088481349508e-14       1.080588912610e-11       1.491892835936e-12      -7.301917448575e-15 
   99       3.751996407899e-10       1.182115861705e-13      -3.436541178346e-12       1.083762391408e-14       1.052443429099e-11       1.460535051098e-12      -7.228949907445e-15 
  100       3.787855895962e-10       1.202319002965e-13      -3.518856749438e-12       1.078644041393e-14       1.025299851490e-11       1.430214968963e-12      -7.159317769544e-15 
  101       3.824112341669e-10       1.222268887421e-13      -3.601117491904e-12       1.073137861090e-14       9.990985433420e-12       1.400864931401e-12      -7.092243545729e-15 
  102       3.860752915540e-10       1.241945940466e-13      -3.683265123884e-12       1.067255965440e-14       9.737675478434e-12       1.372403384845e-12      -7.026860327390e-15 
  103       3.897761321743e-10       1.261330429010e-13      -3.765240611239e-12       1.061011022736e-14       9.492222040947e-12       1.344734445727e-12      -6.962209280314e-15 
  104       3.935122128093e-10       1.280402879082e-13      -3.846984079078e-12       1.054415782569e-14       9.253843347238e-12       1.317769994170e-12      -6.897434080685e-15 
  105       3.972834678691e-10       1.299145380179e-13      -3.928434495072e-12       1.047481586951e-14       9.022435871550e-12       1.291500290033e-12      -6.832399534136e-15 
  106       4.010900847407e-10       1.317540468947e-13      -4.009529975779e-12       1.040219657201e-14       8.798037018597e-12       1.265932130331e-12      -6.767152239986e-15 
  107       4.049320687254e-10       1.335570743522e-13      -4.090207904929e-12       1.032641542985e-14       8.580635143556e-12       1.241066988101e-12      -6.701730773657e-15 
